5.00000 371.000
5.02000 360.000
5.04000 330.000
5.06000 342.000
5.08000 356.000
5.10000 352.000
5.12000 386.000
5.14000 370.000
5.16000 352.000
5.18000 359.000
5.20000 345.000
5.22000 339.000
5.24000 349.000
5.26000 362.000
5.28000 338.000
5.30000 350.000
5.32000 307.000
5.34000 338.000
5.36000 358.000
5.38000 320.000
5.40000 347.000
5.42000 344.000
5.44000 347.000
5.46000 342.000
5.48000 361.000
5.50000 316.000
5.52000 329.000
5.54000 357.000
5.56000 331.000
5.58000 320.000
5.60000 329.000
5.62000 347.000
5.64000 327.000
5.66000 335.000
5.68000 328.000
5.70000 368.000
5.72000 327.000
5.74000 321.000
5.76000 345.000
5.78000 338.000
5.80000 306.000
5.82000 315.000
5.84000 326.000
5.86000 335.000
5.88000 330.000
5.90000 332.000
5.92000 325.000
5.94000 365.000
5.96000 351.000
5.98000 322.000
6.00000 353.000
6.02000 327.000
6.04000 343.000
6.06000 331.000
6.08000 332.000
6.10000 352.000
6.12000 349.000
6.14000 363.000
6.16000 351.000
6.18000 354.000
6.20000 327.000
6.22000 350.000
6.24000 348.000
6.26000 335.000
6.28000 350.000
6.30000 337.000
6.32000 349.000
6.34000 346.000
6.36000 342.000
6.38000 328.000
6.40000 343.000
6.42000 309.000
6.44000 345.000
6.46000 344.000
6.48000 327.000
6.50000 312.000
6.52000 326.000
6.54000 326.000
6.56000 335.000
6.58000 353.000
6.60000 330.000
6.62000 375.000
6.64000 333.000
6.66000 305.000
6.68000 330.000
6.70000 317.000
6.72000 297.000
6.74000 327.000
6.76000 344.000
6.78000 353.000
6.80000 333.000
6.82000 342.000
6.84000 373.000
6.86000 329.000
6.88000 328.000
6.90000 342.000
6.92000 349.000
6.94000 339.000
6.96000 350.000
6.98000 327.000
7.00000 362.000
7.02000 325.000
7.04000 343.000
7.06000 330.000
7.08000 310.000
7.10000 360.000
7.12000 343.000
7.14000 326.000
7.16000 329.000
7.18000 330.000
7.20000 343.000
7.22000 360.000
7.24000 338.000
7.26000 366.000
7.28000 359.000
7.30000 336.000
7.32000 312.000
7.34000 329.000
7.36000 341.000
7.38000 322.000
7.40000 337.000
7.42000 370.000
7.44000 373.000
7.46000 332.000
7.48000 348.000
7.50000 354.000
7.52000 318.000
7.54000 333.000
7.56000 346.000
7.58000 320.000
7.60000 310.000
7.62000 344.000
7.64000 325.000
7.66000 311.000
7.68000 346.000
7.70000 348.000
7.72000 375.000
7.74000 348.000
7.76000 326.000
7.78000 352.000
7.80000 346.000
7.82000 325.000
7.84000 335.000
7.86000 342.000
7.88000 349.000
7.90000 321.000
7.92000 331.000
7.94000 327.000
7.96000 340.000
7.98000 355.000
8.00000 341.000
8.02000 327.000
8.04000 314.000
8.06000 364.000
8.08000 318.000
8.10000 361.000
8.12000 325.000
8.14000 330.000
8.16000 343.000
8.18000 329.000
8.20000 360.000
8.22000 328.000
8.24000 356.000
8.26000 379.000
8.28000 359.000
8.30000 332.000
8.32000 335.000
8.34000 345.000
8.36000 325.000
8.38000 348.000
8.40000 330.000
8.42000 338.000
8.44000 354.000
8.46000 332.000
8.48000 343.000
8.50000 330.000
8.52000 348.000
8.54000 349.000
8.56000 315.000
8.58000 337.000
8.60000 392.000
8.62000 358.000
8.64000 345.000
8.66000 351.000
8.68000 355.000
8.70000 324.000
8.72000 325.000
8.74000 327.000
8.76000 357.000
8.78000 353.000
8.80000 359.000
8.82000 319.000
8.84000 352.000
8.86000 331.000
8.88000 356.000
8.90000 340.000
8.92000 330.000
8.94000 312.000
8.96000 329.000
8.98000 343.000
9.00000 315.000
9.02000 327.000
9.04000 317.000
9.06000 368.000
9.08000 329.000
9.10000 364.000
9.12000 337.000
9.14000 330.000
9.16000 340.000
9.18000 315.000
9.20000 329.000
9.22000 330.000
9.24000 352.000
9.26000 353.000
9.28000 339.000
9.30000 328.000
9.32000 339.000
9.34000 365.000
9.36000 344.000
9.38000 358.000
9.40000 327.000
9.42000 315.000
9.44000 332.000
9.46000 342.000
9.48000 334.000
9.50000 347.000
9.52000 349.000
9.54000 371.000
9.56000 367.000
9.58000 343.000
9.60000 335.000
9.62000 347.000
9.64000 369.000
9.66000 360.000
9.68000 341.000
9.70000 320.000
9.72000 359.000
9.74000 336.000
9.76000 327.000
9.78000 346.000
9.80000 342.000
9.82000 323.000
9.84000 334.000
9.86000 353.000
9.88000 353.000
9.90000 335.000
9.92000 329.000
9.94000 346.000
9.96000 362.000
9.98000 338.000
10.00000 335.000
10.02000 343.000
10.04000 326.000
10.06000 338.000
10.08000 324.000
10.10000 367.000
10.12000 362.000
10.14000 327.000
10.16000 356.000
10.18000 343.000
10.20000 376.000
10.22000 346.000
10.24000 319.000
10.26000 319.000
10.28000 354.000
10.30000 375.000
10.32000 322.000
10.34000 326.000
10.36000 334.000
10.38000 354.000
10.40000 319.000
10.42000 362.000
10.44000 333.000
10.46000 358.000
10.48000 329.000
10.50000 332.000
10.52000 376.000
10.54000 306.000
10.56000 298.000
10.58000 319.000
10.60000 341.000
10.62000 339.000
10.64000 349.000
10.66000 362.000
10.68000 347.000
10.70000 314.000
10.72000 342.000
10.74000 375.000
10.76000 360.000
10.78000 331.000
10.80000 337.000
10.82000 321.000
10.84000 326.000
10.86000 319.000
10.88000 331.000
10.90000 345.000
10.92000 345.000
10.94000 355.000
10.96000 317.000
10.98000 342.000
11.00000 350.000
11.02000 335.000
11.04000 323.000
11.06000 340.000
11.08000 356.000
11.10000 345.000
11.12000 326.000
11.14000 325.000
11.16000 306.000
11.18000 357.000
11.20000 332.000
11.22000 341.000
11.24000 346.000
11.26000 336.000
11.28000 332.000
11.30000 341.000
11.32000 297.000
11.34000 327.000
11.36000 336.000
11.38000 315.000
11.40000 324.000
11.42000 340.000
11.44000 349.000
11.46000 323.000
11.48000 331.000
11.50000 363.000
11.52000 351.000
11.54000 323.000
11.56000 307.000
11.58000 358.000
11.60000 322.000
11.62000 335.000
11.64000 350.000
11.66000 345.000
11.68000 338.000
11.70000 308.000
11.72000 351.000
11.74000 333.000
11.76000 337.000
11.78000 302.000
11.80000 312.000
11.82000 340.000
11.84000 353.000
11.86000 320.000
11.88000 324.000
11.90000 367.000
11.92000 320.000
11.94000 324.000
11.96000 316.000
11.98000 303.000
12.00000 363.000
12.02000 312.000
12.04000 349.000
12.06000 363.000
12.08000 331.000
12.10000 347.000
12.12000 357.000
12.14000 355.000
12.16000 356.000
12.18000 340.000
12.20000 373.000
12.22000 349.000
12.24000 316.000
12.26000 329.000
12.28000 342.000
12.30000 331.000
12.32000 342.000
12.34000 346.000
12.36000 352.000
12.38000 349.000
12.40000 337.000
12.42000 365.000
12.44000 348.000
12.46000 341.000
12.48000 317.000
12.50000 312.000
12.52000 337.000
12.54000 346.000
12.56000 318.000
12.58000 335.000
12.60000 327.000
12.62000 346.000
12.64000 340.000
12.66000 316.000
12.68000 327.000
12.70000 313.000
12.72000 344.000
12.74000 362.000
12.76000 366.000
12.78000 336.000
12.80000 381.000
12.82000 351.000
12.84000 341.000
12.86000 343.000
12.88000 334.000
12.90000 323.000
12.92000 356.000
12.94000 355.000
12.96000 338.000
12.98000 355.000
13.00000 355.000
13.02000 350.000
13.04000 322.000
13.06000 355.000
13.08000 369.000
13.10000 338.000
13.12000 359.000
13.14000 337.000
13.16000 347.000
13.18000 337.000
13.20000 365.000
13.22000 346.000
13.24000 338.000
13.26000 361.000
13.28000 326.000
13.30000 355.000
13.32000 352.000
13.34000 360.000
13.36000 353.000
13.38000 355.000
13.40000 354.000
13.42000 329.000
13.44000 344.000
13.46000 325.000
13.48000 354.000
13.50000 337.000
13.52000 366.000
13.54000 320.000
13.56000 338.000
13.58000 327.000
13.60000 335.000
13.62000 343.000
13.64000 326.000
13.66000 367.000
13.68000 370.000
13.70000 360.000
13.72000 365.000
13.74000 336.000
13.76000 345.000
13.78000 330.000
13.80000 345.000
13.82000 349.000
13.84000 367.000
13.86000 324.000
13.88000 349.000
13.90000 364.000
13.92000 372.000
13.94000 385.000
13.96000 386.000
13.98000 330.000
14.00000 330.000
14.02000 345.000
14.04000 355.000
14.06000 344.000
14.08000 339.000
14.10000 362.000
14.12000 359.000
14.14000 371.000
14.16000 357.000
14.18000 373.000
14.20000 338.000
14.22000 348.000
14.24000 331.000
14.26000 375.000
14.28000 353.000
14.30000 304.000
14.32000 361.000
14.34000 341.000
14.36000 351.000
14.38000 349.000
14.40000 353.000
14.42000 331.000
14.44000 316.000
14.46000 371.000
14.48000 364.000
14.50000 339.000
14.52000 354.000
14.54000 341.000
14.56000 345.000
14.58000 369.000
14.60000 366.000
14.62000 360.000
14.64000 339.000
14.66000 338.000
14.68000 354.000
14.70000 359.000
14.72000 328.000
14.74000 339.000
14.76000 344.000
14.78000 351.000
14.80000 333.000
14.82000 351.000
14.84000 353.000
14.86000 349.000
14.88000 365.000
14.90000 367.000
14.92000 332.000
14.94000 340.000
14.96000 349.000
14.98000 353.000
15.00000 344.000
15.02000 362.000
15.04000 349.000
15.06000 372.000
15.08000 351.000
15.10000 350.000
15.12000 382.000
15.14000 357.000
15.16000 371.000
15.18000 362.000
15.20000 349.000
15.22000 335.000
15.24000 345.000
15.26000 331.000
15.28000 324.000
15.30000 340.000
15.32000 361.000
15.34000 348.000
15.36000 349.000
15.38000 363.000
15.40000 371.000
15.42000 362.000
15.44000 349.000
15.46000 355.000
15.48000 360.000
15.50000 363.000
15.52000 353.000
15.54000 337.000
15.56000 362.000
15.58000 372.000
15.60000 367.000
15.62000 381.000
15.64000 330.000
15.66000 344.000
15.68000 385.000
15.70000 369.000
15.72000 376.000
15.74000 350.000
15.76000 367.000
15.78000 379.000
15.80000 339.000
15.82000 360.000
15.84000 326.000
15.86000 370.000
15.88000 362.000
15.90000 341.000
15.92000 351.000
15.94000 353.000
15.96000 379.000
15.98000 371.000
16.00000 344.000
16.02000 351.000
16.04000 335.000
16.06000 353.000
16.08000 354.000
16.10000 373.000
16.12000 385.000
16.14000 374.000
16.16000 357.000
16.18000 361.000
16.20000 338.000
16.22000 362.000
16.24000 359.000
16.26000 349.000
16.28000 348.000
16.30000 361.000
16.32000 387.000
16.34000 337.000
16.36000 352.000
16.38000 357.000
16.40000 364.000
16.42000 389.000
16.44000 364.000
16.46000 369.000
16.48000 377.000
16.50000 369.000
16.52000 353.000
16.54000 358.000
16.56000 360.000
16.58000 387.000
16.60000 360.000
16.62000 366.000
16.64000 365.000
16.66000 324.000
16.68000 386.000
16.70000 405.000
16.72000 410.000
16.74000 379.000
16.76000 382.000
16.78000 385.000
16.80000 378.000
16.82000 373.000
16.84000 427.000
16.86000 350.000
16.88000 352.000
16.90000 414.000
16.92000 394.000
16.94000 351.000
16.96000 382.000
16.98000 362.000
17.00000 367.000
17.02000 368.000
17.04000 349.000
17.06000 393.000
17.08000 382.000
17.10000 366.000
17.12000 385.000
17.14000 362.000
17.16000 392.000
17.18000 402.000
17.20000 392.000
17.22000 382.000
17.24000 350.000
17.26000 366.000
17.28000 355.000
17.30000 383.000
17.32000 364.000
17.34000 380.000
17.36000 366.000
17.38000 364.000
17.40000 369.000
17.42000 372.000
17.44000 409.000
17.46000 405.000
17.48000 361.000
17.50000 365.000
17.52000 389.000
17.54000 380.000
17.56000 394.000
17.58000 401.000
17.60000 368.000
17.62000 382.000
17.64000 394.000
17.66000 359.000
17.68000 398.000
17.70000 407.000
17.72000 390.000
17.74000 405.000
17.76000 408.000
17.78000 437.000
17.80000 402.000
17.82000 416.000
17.84000 465.000
17.86000 455.000
17.88000 470.000
17.90000 456.000
17.92000 493.000
17.94000 542.000
17.96000 594.000
17.98000 606.000
18.00000 670.000
18.02000 701.000
18.04000 707.000
18.06000 767.000
18.08000 777.000
18.10000 834.000
18.12000 828.000
18.14000 883.000
18.16000 881.000
18.18000 877.000
18.20000 824.000
18.22000 877.000
18.24000 877.000
18.26000 968.000
18.28000 1041.000
18.30000 1235.000
18.32000 1571.000
18.34000 2016.000
18.36000 2877.000
18.38000 3663.000
18.40000 4990.000
18.42000 6650.000
18.44000 8157.000
18.46000 9313.000
18.48000 8880.000
18.50000 7436.000
18.52000 5562.000
18.54000 3699.000
18.56000 2267.000
18.58000 1366.000
18.60000 886.000
18.62000 675.000
18.64000 636.000
18.66000 567.000
18.68000 553.000
18.70000 540.000
18.72000 552.000
18.74000 545.000
18.76000 549.000
18.78000 579.000
18.80000 537.000
18.82000 512.000
18.84000 485.000
18.86000 478.000
18.88000 474.000
18.90000 432.000
18.92000 449.000
18.94000 451.000
18.96000 480.000
18.98000 412.000
19.00000 457.000
19.02000 430.000
19.04000 443.000
19.06000 401.000
19.08000 422.000
19.10000 424.000
19.12000 427.000
19.14000 417.000
19.16000 433.000
19.18000 431.000
19.20000 447.000
19.22000 439.000
19.24000 416.000
19.26000 411.000
19.28000 396.000
19.30000 419.000
19.32000 413.000
19.34000 412.000
19.36000 420.000
19.38000 408.000
19.40000 405.000
19.42000 439.000
19.44000 446.000
19.46000 424.000
19.48000 426.000
19.50000 424.000
19.52000 372.000
19.54000 389.000
19.56000 417.000
19.58000 436.000
19.60000 419.000
19.62000 406.000
19.64000 427.000
19.66000 426.000
19.68000 432.000
19.70000 401.000
19.72000 403.000
19.74000 443.000
19.76000 410.000
19.78000 386.000
19.80000 415.000
19.82000 431.000
19.84000 398.000
19.86000 424.000
19.88000 421.000
19.90000 411.000
19.92000 410.000
19.94000 413.000
19.96000 379.000
19.98000 435.000
20.00000 416.000
20.02000 402.000
20.04000 399.000
20.06000 439.000
20.08000 435.000
20.10000 448.000
20.12000 412.000
20.14000 428.000
20.16000 410.000
20.18000 404.000
20.20000 417.000
20.22000 417.000
20.24000 415.000
20.26000 428.000
20.28000 434.000
20.30000 461.000
20.32000 431.000
20.34000 452.000
20.36000 404.000
20.38000 403.000
20.40000 419.000
20.42000 440.000
20.44000 454.000
20.46000 394.000
20.48000 423.000
20.50000 401.000
20.52000 429.000
20.54000 438.000
20.56000 418.000
20.58000 406.000
20.60000 412.000
20.62000 449.000
20.64000 425.000
20.66000 475.000
20.68000 396.000
20.70000 417.000
20.72000 430.000
20.74000 449.000
20.76000 427.000
20.78000 467.000
20.80000 461.000
20.82000 496.000
20.84000 543.000
20.86000 519.000
20.88000 537.000
20.90000 530.000
20.92000 606.000
20.94000 566.000
20.96000 572.000
20.98000 615.000
21.00000 603.000
21.02000 603.000
21.04000 560.000
21.06000 621.000
21.08000 582.000
21.10000 594.000
21.12000 643.000
21.14000 669.000
21.16000 764.000
21.18000 888.000
21.20000 1100.000
21.22000 1369.000
21.24000 1784.000
21.26000 2304.000
21.28000 2909.000
21.30000 3188.000
21.32000 3268.000
21.34000 2858.000
21.36000 2372.000
21.38000 1806.000
21.40000 1256.000
21.42000 886.000
21.44000 674.000
21.46000 570.000
21.48000 510.000
21.50000 480.000
21.52000 488.000
21.54000 487.000
21.56000 480.000
21.58000 464.000
21.60000 468.000
21.62000 473.000
21.64000 423.000
21.66000 455.000
21.68000 432.000
21.70000 454.000
21.72000 421.000
21.74000 457.000
21.76000 472.000
21.78000 444.000
21.80000 405.000
21.82000 394.000
21.84000 404.000
21.86000 423.000
21.88000 450.000
21.90000 451.000
21.92000 452.000
21.94000 422.000
21.96000 412.000
21.98000 434.000
22.00000 430.000
22.02000 458.000
22.04000 415.000
22.06000 446.000
22.08000 432.000
22.10000 412.000
22.12000 435.000
22.14000 418.000
22.16000 409.000
22.18000 399.000
22.20000 397.000
22.22000 420.000
22.24000 420.000
22.26000 433.000
22.28000 409.000
22.30000 418.000
22.32000 389.000
22.34000 405.000
22.36000 424.000
22.38000 427.000
22.40000 416.000
22.42000 418.000
22.44000 441.000
22.46000 429.000
22.48000 429.000
22.50000 412.000
22.52000 441.000
22.54000 426.000
22.56000 398.000
22.58000 411.000
22.60000 415.000
22.62000 424.000
22.64000 420.000
22.66000 400.000
22.68000 429.000
22.70000 453.000
22.72000 444.000
22.74000 447.000
22.76000 442.000
22.78000 420.000
22.80000 392.000
22.82000 442.000
22.84000 429.000
22.86000 426.000
22.88000 447.000
22.90000 437.000
22.92000 419.000
22.94000 405.000
22.96000 405.000
22.98000 402.000
23.00000 410.000
23.02000 416.000
23.04000 455.000
23.06000 409.000
23.08000 427.000
23.10000 402.000
23.12000 446.000
23.14000 426.000
23.16000 429.000
23.18000 439.000
23.20000 421.000
23.22000 431.000
23.24000 409.000
23.26000 417.000
23.28000 440.000
23.30000 425.000
23.32000 403.000
23.34000 441.000
23.36000 427.000
23.38000 427.000
23.40000 428.000
23.42000 453.000
23.44000 443.000
23.46000 430.000
23.48000 423.000
23.50000 420.000
23.52000 377.000
23.54000 407.000
23.56000 424.000
23.58000 416.000
23.60000 440.000
23.62000 463.000
23.64000 420.000
23.66000 422.000
23.68000 386.000
23.70000 410.000
23.72000 443.000
23.74000 426.000
23.76000 439.000
23.78000 418.000
23.80000 422.000
23.82000 417.000
23.84000 436.000
23.86000 436.000
23.88000 423.000
23.90000 425.000
23.92000 415.000
23.94000 396.000
23.96000 428.000
23.98000 430.000
24.00000 395.000
24.02000 419.000
24.04000 428.000
24.06000 423.000
24.08000 409.000
24.10000 412.000
24.12000 399.000
24.14000 400.000
24.16000 416.000
24.18000 443.000
24.20000 427.000
24.22000 391.000
24.24000 414.000
24.26000 369.000
24.28000 376.000
24.30000 419.000
24.32000 412.000
24.34000 400.000
24.36000 416.000
24.38000 452.000
24.40000 423.000
24.42000 426.000
24.44000 440.000
24.46000 423.000
24.48000 392.000
24.50000 379.000
24.52000 401.000
24.54000 412.000
24.56000 396.000
24.58000 398.000
24.60000 415.000
24.62000 385.000
24.64000 405.000
24.66000 406.000
24.68000 401.000
24.70000 387.000
24.72000 431.000
24.74000 422.000
24.76000 430.000
24.78000 408.000
24.80000 384.000
24.82000 412.000
24.84000 400.000
24.86000 400.000
24.88000 408.000
24.90000 390.000
24.92000 395.000
24.94000 397.000
24.96000 393.000
24.98000 402.000
25.00000 422.000
25.02000 420.000
25.04000 411.000
25.06000 421.000
25.08000 388.000
25.10000 400.000
25.12000 401.000
25.14000 410.000
25.16000 404.000
25.18000 415.000
25.20000 391.000
25.22000 406.000
25.24000 383.000
25.26000 421.000
25.28000 392.000
25.30000 418.000
25.32000 403.000
25.34000 403.000
25.36000 399.000
25.38000 362.000
25.40000 387.000
25.42000 376.000
25.44000 428.000
25.46000 391.000
25.48000 408.000
25.50000 394.000
25.52000 400.000
25.54000 444.000
25.56000 384.000
25.58000 381.000
25.60000 385.000
25.62000 425.000
25.64000 382.000
25.66000 405.000
25.68000 408.000
25.70000 397.000
25.72000 410.000
25.74000 407.000
25.76000 418.000
25.78000 450.000
25.80000 421.000
25.82000 413.000
25.84000 429.000
25.86000 442.000
25.88000 435.000
25.90000 384.000
25.92000 384.000
25.94000 371.000
25.96000 385.000
25.98000 346.000
26.00000 380.000
26.02000 380.000
26.04000 372.000
26.06000 407.000
26.08000 374.000
26.10000 390.000
26.12000 416.000
26.14000 423.000
26.16000 414.000
26.18000 374.000
26.20000 378.000
26.22000 420.000
26.24000 418.000
26.26000 374.000
26.28000 382.000
26.30000 378.000
26.32000 396.000
26.34000 403.000
26.36000 370.000
26.38000 397.000
26.40000 360.000
26.42000 396.000
26.44000 362.000
26.46000 397.000
26.48000 377.000
26.50000 385.000
26.52000 398.000
26.54000 391.000
26.56000 396.000
26.58000 380.000
26.60000 401.000
26.62000 366.000
26.64000 370.000
26.66000 403.000
26.68000 381.000
26.70000 364.000
26.72000 347.000
26.74000 386.000
26.76000 387.000
26.78000 394.000
26.80000 377.000
26.82000 378.000
26.84000 373.000
26.86000 398.000
26.88000 398.000
26.90000 367.000
26.92000 386.000
26.94000 385.000
26.96000 388.000
26.98000 391.000
27.00000 387.000
27.02000 351.000
27.04000 386.000
27.06000 395.000
27.08000 388.000
27.10000 396.000
27.12000 388.000
27.14000 387.000
27.16000 386.000
27.18000 390.000
27.20000 356.000
27.22000 387.000
27.24000 383.000
27.26000 399.000
27.28000 420.000
27.30000 416.000
27.32000 403.000
27.34000 407.000
27.36000 395.000
27.38000 398.000
27.40000 420.000
27.42000 386.000
27.44000 412.000
27.46000 394.000
27.48000 410.000
27.50000 416.000
27.52000 414.000
27.54000 397.000
27.56000 386.000
27.58000 416.000
27.60000 422.000
27.62000 417.000
27.64000 451.000
27.66000 484.000
27.68000 413.000
27.70000 468.000
27.72000 498.000
27.74000 574.000
27.76000 548.000
27.78000 596.000
27.80000 641.000
27.82000 685.000
27.84000 741.000
27.86000 761.000
27.88000 834.000
27.90000 782.000
27.92000 805.000
27.94000 799.000
27.96000 833.000
27.98000 854.000
28.00000 910.000
28.02000 995.000
28.04000 1100.000
28.06000 1321.000
28.08000 1651.000
28.10000 2089.000
28.12000 2594.000
28.14000 3539.000
28.16000 4719.000
28.18000 5977.000
28.20000 7578.000
28.22000 8649.000
28.24000 8425.000
28.26000 7421.000
28.28000 6269.000
28.30000 5115.000
28.32000 3879.000
28.34000 2446.000
28.36000 1683.000
28.38000 1138.000
28.40000 904.000
28.42000 720.000
28.44000 580.000
28.46000 578.000
28.48000 515.000
28.50000 522.000
28.52000 509.000
28.54000 505.000
28.56000 491.000
28.58000 439.000
28.60000 511.000
28.62000 491.000
28.64000 486.000
28.66000 460.000
28.68000 466.000
28.70000 477.000
28.72000 492.000
28.74000 492.000
28.76000 516.000
28.78000 494.000
28.80000 485.000
28.82000 469.000
28.84000 493.000
28.86000 500.000
28.88000 462.000
28.90000 491.000
28.92000 474.000
28.94000 499.000
28.96000 503.000
28.98000 456.000
29.00000 446.000
29.02000 425.000
29.04000 396.000
29.06000 412.000
29.08000 401.000
29.10000 391.000
29.12000 440.000
29.14000 390.000
29.16000 409.000
29.18000 405.000
29.20000 428.000
29.22000 424.000
29.24000 385.000
29.26000 377.000
29.28000 380.000
29.30000 399.000
29.32000 401.000
29.34000 419.000
29.36000 391.000
29.38000 418.000
29.40000 407.000
29.42000 385.000
29.44000 362.000
29.46000 402.000
29.48000 377.000
29.50000 394.000
29.52000 390.000
29.54000 403.000
29.56000 349.000
29.58000 396.000
29.60000 393.000
29.62000 393.000
29.64000 395.000
29.66000 404.000
29.68000 420.000
29.70000 454.000
29.72000 472.000
29.74000 475.000
29.76000 481.000
29.78000 499.000
29.80000 498.000
29.82000 572.000
29.84000 582.000
29.86000 590.000
29.88000 586.000
29.90000 612.000
29.92000 594.000
29.94000 638.000
29.96000 689.000
29.98000 670.000
30.00000 717.000
30.02000 813.000
30.04000 938.000
30.06000 1128.000
30.08000 1389.000
30.10000 1706.000
30.12000 2152.000
30.14000 2767.000
30.16000 3539.000
30.18000 4290.000
30.20000 4638.000
30.22000 4218.000
30.24000 3701.000
30.26000 3193.000
30.28000 2648.000
30.30000 2097.000
30.32000 1452.000
30.34000 1046.000
30.36000 739.000
30.38000 612.000
30.40000 534.000
30.42000 478.000
30.44000 497.000
30.46000 483.000
30.48000 501.000
30.50000 458.000
30.52000 477.000
30.54000 463.000
30.56000 418.000
30.58000 431.000
30.60000 387.000
30.62000 442.000
30.64000 382.000
30.66000 363.000
30.68000 380.000
30.70000 402.000
30.72000 385.000
30.74000 375.000
30.76000 392.000
30.78000 386.000
30.80000 392.000
30.82000 361.000
30.84000 341.000
30.86000 359.000
30.88000 361.000
30.90000 370.000
30.92000 347.000
30.94000 344.000
30.96000 347.000
30.98000 365.000
31.00000 376.000
31.02000 355.000
31.04000 362.000
31.06000 323.000
31.08000 339.000
31.10000 371.000
31.12000 356.000
31.14000 362.000
31.16000 379.000
31.18000 353.000
31.20000 342.000
31.22000 324.000
31.24000 383.000
31.26000 373.000
31.28000 386.000
31.30000 348.000
31.32000 375.000
31.34000 375.000
31.36000 372.000
31.38000 357.000
31.40000 354.000
31.42000 352.000
31.44000 373.000
31.46000 356.000
31.48000 371.000
31.50000 355.000
31.52000 362.000
31.54000 339.000
31.56000 338.000
31.58000 371.000
31.60000 368.000
31.62000 380.000
31.64000 359.000
31.66000 337.000
31.68000 357.000
31.70000 338.000
31.72000 317.000
31.74000 343.000
31.76000 362.000
31.78000 355.000
31.80000 357.000
31.82000 331.000
31.84000 348.000
31.86000 356.000
31.88000 362.000
31.90000 335.000
31.92000 349.000
31.94000 370.000
31.96000 350.000
31.98000 344.000
32.00000 348.000
32.02000 375.000
32.04000 350.000
32.06000 331.000
32.08000 389.000
32.10000 383.000
32.12000 366.000
32.14000 359.000
32.16000 361.000
32.18000 343.000
32.20000 366.000
32.22000 382.000
32.24000 349.000
32.26000 362.000
32.28000 367.000
32.30000 360.000
32.32000 351.000
32.34000 348.000
32.36000 346.000
32.38000 374.000
32.40000 333.000
32.42000 372.000
32.44000 342.000
32.46000 356.000
32.48000 374.000
32.50000 338.000
32.52000 314.000
32.54000 327.000
32.56000 344.000
32.58000 362.000
32.60000 374.000
32.62000 379.000
32.64000 365.000
32.66000 409.000
32.68000 402.000
32.70000 415.000
32.72000 393.000
32.74000 416.000
32.76000 416.000
32.78000 435.000
32.80000 409.000
32.82000 430.000
32.84000 448.000
32.86000 431.000
32.88000 423.000
32.90000 421.000
32.92000 413.000
32.94000 421.000
32.96000 441.000
32.98000 454.000
33.00000 467.000
33.02000 426.000
33.04000 431.000
33.06000 460.000
33.08000 419.000
33.10000 421.000
33.12000 460.000
33.14000 492.000
33.16000 481.000
33.18000 481.000
33.20000 500.000
33.22000 467.000
33.24000 526.000
33.26000 521.000
33.28000 568.000
33.30000 609.000
33.32000 632.000
33.34000 723.000
33.36000 792.000
33.38000 831.000
33.40000 913.000
33.42000 985.000
33.44000 1111.000
33.46000 1217.000
33.48000 1253.000
33.50000 1315.000
33.52000 1422.000
33.54000 1531.000
33.56000 1640.000
33.58000 1807.000
33.60000 2050.000
33.62000 2318.000
33.64000 2668.000
33.66000 3291.000
33.68000 4174.000
33.70000 5298.000
33.72000 7160.000
33.74000 9671.000
33.76000 12986.000
33.78000 16929.000
33.80000 21432.000
33.82000 25639.000
33.84000 26851.000
33.86000 23423.000
33.88000 19419.000
33.90000 16694.000
33.92000 14377.000
33.94000 11104.000
33.96000 7397.000
33.98000 4568.000
34.00000 2840.000
34.02000 1836.000
34.04000 1393.000
34.06000 1084.000
34.08000 991.000
34.10000 925.000
34.12000 826.000
34.14000 796.000
34.16000 772.000
34.18000 768.000
34.20000 727.000
34.22000 647.000
34.24000 647.000
34.26000 616.000
34.28000 604.000
34.30000 541.000
34.32000 534.000
34.34000 512.000
34.36000 493.000
34.38000 478.000
34.40000 475.000
34.42000 491.000
34.44000 479.000
34.46000 435.000
34.48000 421.000
34.50000 418.000
34.52000 455.000
34.54000 445.000
34.56000 484.000
34.58000 447.000
34.60000 455.000
34.62000 427.000
34.64000 434.000
34.66000 427.000
34.68000 400.000
34.70000 420.000
34.72000 413.000
34.74000 399.000
34.76000 397.000
34.78000 397.000
34.80000 408.000
34.82000 402.000
34.84000 469.000
34.86000 403.000
34.88000 395.000
34.90000 380.000
34.92000 369.000
34.94000 421.000
34.96000 410.000
34.98000 400.000
35.00000 408.000
35.02000 391.000
35.04000 400.000
35.06000 417.000
35.08000 408.000
35.10000 401.000
35.12000 392.000
35.14000 417.000
35.16000 434.000
35.18000 395.000
35.20000 432.000
35.22000 434.000
35.24000 427.000
35.26000 415.000
35.28000 467.000
35.30000 454.000
35.32000 493.000
35.34000 468.000
35.36000 505.000
35.38000 508.000
35.40000 567.000
35.42000 616.000
35.44000 693.000
35.46000 828.000
35.48000 974.000
35.50000 1077.000
35.52000 1150.000
35.54000 1117.000
35.56000 999.000
35.58000 951.000
35.60000 828.000
35.62000 732.000
35.64000 629.000
35.66000 546.000
35.68000 463.000
35.70000 446.000
35.72000 407.000
35.74000 379.000
35.76000 390.000
35.78000 392.000
35.80000 363.000
35.82000 392.000
35.84000 345.000
35.86000 371.000
35.88000 391.000
35.90000 413.000
35.92000 396.000
35.94000 356.000
35.96000 387.000
35.98000 391.000
36.00000 370.000
36.02000 382.000
36.04000 384.000
36.06000 404.000
36.08000 377.000
36.10000 384.000
36.12000 379.000
36.14000 408.000
36.16000 357.000
36.18000 368.000
36.20000 378.000
36.22000 381.000
36.24000 344.000
36.26000 406.000
36.28000 368.000
36.30000 363.000
36.32000 386.000
36.34000 372.000
36.36000 368.000
36.38000 376.000
36.40000 385.000
36.42000 366.000
36.44000 348.000
36.46000 375.000
36.48000 364.000
36.50000 385.000
36.52000 367.000
36.54000 337.000
36.56000 382.000
36.58000 370.000
36.60000 371.000
36.62000 353.000
36.64000 433.000
36.66000 400.000
36.68000 412.000
36.70000 435.000
36.72000 426.000
36.74000 446.000
36.76000 468.000
36.78000 486.000
36.80000 514.000
36.82000 508.000
36.84000 527.000
36.86000 566.000
36.88000 599.000
36.90000 641.000
36.92000 676.000
36.94000 767.000
36.96000 821.000
36.98000 962.000
37.00000 1141.000
37.02000 1489.000
37.04000 1928.000
37.06000 2477.000
37.08000 3234.000
37.10000 4206.000
37.12000 5161.000
37.14000 5922.000
37.16000 5937.000
37.18000 5100.000
37.20000 4134.000
37.22000 3721.000
37.24000 3271.000
37.26000 2710.000
37.28000 2031.000
37.30000 1377.000
37.32000 949.000
37.34000 705.000
37.36000 597.000
37.38000 500.000
37.40000 475.000
37.42000 468.000
37.44000 480.000
37.46000 457.000
37.48000 432.000
37.50000 441.000
37.52000 414.000
37.54000 422.000
37.56000 420.000
37.58000 402.000
37.60000 384.000
37.62000 391.000
37.64000 347.000
37.66000 378.000
37.68000 378.000
37.70000 357.000
37.72000 356.000
37.74000 373.000
37.76000 365.000
37.78000 376.000
37.80000 340.000
37.82000 356.000
37.84000 348.000
37.86000 334.000
37.88000 354.000
37.90000 394.000
37.92000 336.000
37.94000 333.000
37.96000 368.000
37.98000 353.000
38.00000 364.000
38.02000 409.000
38.04000 383.000
38.06000 351.000
38.08000 369.000
38.10000 352.000
38.12000 345.000
38.14000 346.000
38.16000 346.000
38.18000 332.000
38.20000 349.000
38.22000 343.000
38.24000 348.000
38.26000 335.000
38.28000 326.000
38.30000 351.000
38.32000 356.000
38.34000 342.000
38.36000 328.000
38.38000 319.000
38.40000 350.000
38.42000 348.000
38.44000 369.000
38.46000 370.000
38.48000 387.000
38.50000 359.000
38.52000 389.000
38.54000 394.000
38.56000 447.000
38.58000 458.000
38.60000 488.000
38.62000 563.000
38.64000 611.000
38.66000 702.000
38.68000 774.000
38.70000 919.000
38.72000 908.000
38.74000 813.000
38.76000 748.000
38.78000 730.000
38.80000 696.000
38.82000 622.000
38.84000 536.000
38.86000 484.000
38.88000 398.000
38.90000 371.000
38.92000 346.000
38.94000 345.000
38.96000 327.000
38.98000 332.000
39.00000 320.000
39.02000 326.000
39.04000 357.000
39.06000 356.000
39.08000 351.000
39.10000 344.000
39.12000 342.000
39.14000 332.000
39.16000 337.000
39.18000 338.000
39.20000 354.000
39.22000 315.000
39.24000 336.000
39.26000 332.000
39.28000 344.000
39.30000 316.000
39.32000 326.000
39.34000 334.000
39.36000 311.000
39.38000 320.000
39.40000 362.000
39.42000 329.000
39.44000 339.000
39.46000 334.000
39.48000 318.000
39.50000 314.000
39.52000 332.000
39.54000 346.000
39.56000 319.000
39.58000 308.000
39.60000 307.000
39.62000 326.000
39.64000 317.000
39.66000 292.000
39.68000 299.000
39.70000 300.000
39.72000 307.000
39.74000 332.000
39.76000 349.000
39.78000 349.000
39.80000 340.000
39.82000 332.000
39.84000 319.000
39.86000 335.000
39.88000 319.000
39.90000 297.000
39.92000 323.000
39.94000 315.000
39.96000 339.000
39.98000 344.000
40.00000 336.000
40.02000 324.000
40.04000 318.000
40.06000 323.000
40.08000 303.000
40.10000 301.000
40.12000 328.000
40.14000 327.000
40.16000 320.000
40.18000 345.000
40.20000 328.000
40.22000 325.000
40.24000 343.000
40.26000 324.000
40.28000 344.000
40.30000 370.000
40.32000 356.000
40.34000 328.000
40.36000 318.000
40.38000 345.000
40.40000 340.000
40.42000 350.000
40.44000 329.000
40.46000 331.000
40.48000 337.000
40.50000 346.000
40.52000 322.000
40.54000 338.000
40.56000 342.000
40.58000 342.000
40.60000 352.000
40.62000 334.000
40.64000 350.000
40.66000 347.000
40.68000 308.000
40.70000 335.000
40.72000 332.000
40.74000 335.000
40.76000 342.000
40.78000 336.000
40.80000 331.000
40.82000 315.000
40.84000 328.000
40.86000 352.000
40.88000 335.000
40.90000 342.000
40.92000 366.000
40.94000 341.000
40.96000 333.000
40.98000 332.000
41.00000 371.000
41.02000 353.000
41.04000 357.000
41.06000 343.000
41.08000 360.000
41.10000 340.000
41.12000 359.000
41.14000 379.000
41.16000 371.000
41.18000 361.000
41.20000 377.000
41.22000 400.000
41.24000 378.000
41.26000 410.000
41.28000 427.000
41.30000 434.000
41.32000 437.000
41.34000 465.000
41.36000 476.000
41.38000 519.000
41.40000 540.000
41.42000 612.000
41.44000 660.000
41.46000 683.000
41.48000 786.000
41.50000 842.000
41.52000 990.000
41.54000 1194.000
41.56000 1539.000
41.58000 2068.000
41.60000 2859.000
41.62000 3891.000
41.64000 5130.000
41.66000 6453.000
41.68000 7658.000
41.70000 7500.000
41.72000 6380.000
41.74000 5203.000
41.76000 4643.000
41.78000 4382.000
41.80000 3998.000
41.82000 3229.000
41.84000 2262.000
41.86000 1544.000
41.88000 1021.000
41.90000 742.000
41.92000 640.000
41.94000 569.000
41.96000 502.000
41.98000 508.000
42.00000 480.000
42.02000 465.000
42.04000 445.000
42.06000 437.000
42.08000 417.000
42.10000 443.000
42.12000 402.000
42.14000 387.000
42.16000 383.000
42.18000 387.000
42.20000 332.000
42.22000 368.000
42.24000 346.000
42.26000 350.000
42.28000 396.000
42.30000 326.000
42.32000 343.000
42.34000 368.000
42.36000 333.000
42.38000 336.000
42.40000 333.000
42.42000 314.000
42.44000 355.000
42.46000 344.000
42.48000 332.000
42.50000 321.000
42.52000 356.000
42.54000 354.000
42.56000 338.000
42.58000 365.000
42.60000 340.000
42.62000 357.000
42.64000 336.000
42.66000 332.000
42.68000 348.000
42.70000 357.000
42.72000 344.000
42.74000 353.000
42.76000 330.000
42.78000 360.000
42.80000 383.000
42.82000 403.000
42.84000 382.000
42.86000 379.000
42.88000 416.000
42.90000 454.000
42.92000 451.000
42.94000 460.000
42.96000 509.000
42.98000 597.000
43.00000 708.000
43.02000 848.000
43.04000 1152.000
43.06000 1348.000
43.08000 1684.000
43.10000 1934.000
43.12000 1960.000
43.14000 1790.000
43.16000 1501.000
43.18000 1301.000
43.20000 1202.000
43.22000 1190.000
43.24000 1097.000
43.26000 860.000
43.28000 667.000
43.30000 530.000
43.32000 462.000
43.34000 387.000
43.36000 348.000
43.38000 349.000
43.40000 318.000
43.42000 374.000
43.44000 353.000
43.46000 393.000
43.48000 387.000
43.50000 360.000
43.52000 365.000
43.54000 342.000
43.56000 361.000
43.58000 390.000
43.60000 357.000
43.62000 354.000
43.64000 351.000
43.66000 362.000
43.68000 365.000
43.70000 330.000
43.72000 327.000
43.74000 314.000
43.76000 337.000
43.78000 312.000
43.80000 332.000
43.82000 332.000
43.84000 348.000
43.86000 332.000
43.88000 295.000
43.90000 326.000
43.92000 368.000
43.94000 315.000
43.96000 320.000
43.98000 309.000
44.00000 328.000
44.02000 329.000
44.04000 287.000
44.06000 310.000
44.08000 327.000
44.10000 322.000
44.12000 290.000
44.14000 323.000
44.16000 293.000
44.18000 313.000
44.20000 317.000
44.22000 307.000
44.24000 315.000
44.26000 311.000
44.28000 290.000
44.30000 356.000
44.32000 326.000
44.34000 306.000
44.36000 318.000
44.38000 303.000
44.40000 304.000
44.42000 322.000
44.44000 335.000
44.46000 296.000
44.48000 311.000
44.50000 319.000
44.52000 335.000
44.54000 296.000
44.56000 344.000
44.58000 310.000
44.60000 341.000
44.62000 319.000
44.64000 322.000
44.66000 307.000
44.68000 324.000
44.70000 308.000
44.72000 330.000
44.74000 323.000
44.76000 343.000
44.78000 320.000
44.80000 309.000
44.82000 324.000
44.84000 306.000
44.86000 294.000
44.88000 309.000
44.90000 301.000
44.92000 336.000
44.94000 298.000
44.96000 344.000
44.98000 326.000
45.00000 321.000
45.02000 291.000
45.04000 301.000
45.06000 294.000
45.08000 301.000
45.10000 319.000
45.12000 305.000
45.14000 301.000
45.16000 298.000
45.18000 300.000
45.20000 308.000
45.22000 330.000
45.24000 321.000
45.26000 326.000
45.28000 317.000
45.30000 304.000
45.32000 319.000
45.34000 291.000
45.36000 277.000
45.38000 310.000
45.40000 299.000
45.42000 290.000
45.44000 310.000
45.46000 313.000
45.48000 323.000
45.50000 302.000
45.52000 294.000
45.54000 313.000
45.56000 323.000
45.58000 310.000
45.60000 342.000
45.62000 351.000
45.64000 325.000
45.66000 351.000
45.68000 323.000
45.70000 342.000
45.72000 339.000
45.74000 302.000
45.76000 333.000
45.78000 344.000
45.80000 341.000
45.82000 329.000
45.84000 346.000
45.86000 332.000
45.88000 307.000
45.90000 338.000
45.92000 325.000
45.94000 331.000
45.96000 333.000
45.98000 302.000
46.00000 334.000
46.02000 346.000
46.04000 327.000
46.06000 327.000
46.08000 298.000
46.10000 295.000
46.12000 338.000
46.14000 326.000
46.16000 326.000
46.18000 315.000
46.20000 323.000
46.22000 350.000
46.24000 341.000
46.26000 291.000
46.28000 314.000
46.30000 303.000
46.32000 318.000
46.34000 325.000
46.36000 350.000
46.38000 335.000
46.40000 317.000
46.42000 329.000
46.44000 334.000
46.46000 339.000
46.48000 352.000
46.50000 372.000
46.52000 345.000
46.54000 328.000
46.56000 345.000
46.58000 329.000
46.60000 380.000
46.62000 345.000
46.64000 389.000
46.66000 398.000
46.68000 393.000
46.70000 410.000
46.72000 404.000
46.74000 421.000
46.76000 404.000
46.78000 428.000
46.80000 438.000
46.82000 480.000
46.84000 508.000
46.86000 486.000
46.88000 533.000
46.90000 553.000
46.92000 556.000
46.94000 669.000
46.96000 725.000
46.98000 821.000
47.00000 934.000
47.02000 1151.000
47.04000 1423.000
47.06000 1853.000
47.08000 2638.000
47.10000 3661.000
47.12000 4927.000
47.14000 6557.000
47.16000 7891.000
47.18000 8173.000
47.20000 7180.000
47.22000 5764.000
47.24000 4725.000
47.26000 4299.000
47.28000 4489.000
47.30000 4321.000
47.32000 3700.000
47.34000 2723.000
47.36000 1816.000
47.38000 1293.000
47.40000 849.000
47.42000 673.000
47.44000 576.000
47.46000 567.000
47.48000 479.000
47.50000 519.000
47.52000 489.000
47.54000 459.000
47.56000 471.000
47.58000 439.000
47.60000 440.000
47.62000 385.000
47.64000 413.000
47.66000 430.000
47.68000 400.000
47.70000 393.000
47.72000 443.000
47.74000 405.000
47.76000 408.000
47.78000 387.000
47.80000 374.000
47.82000 392.000
47.84000 413.000
47.86000 401.000
47.88000 414.000
47.90000 400.000
47.92000 382.000
47.94000 365.000
47.96000 375.000
47.98000 382.000
48.00000 357.000
48.02000 343.000
48.04000 336.000
48.06000 363.000
48.08000 374.000
48.10000 342.000
48.12000 371.000
48.14000 379.000
48.16000 350.000
48.18000 356.000
48.20000 402.000
48.22000 350.000
48.24000 388.000
48.26000 375.000
48.28000 372.000
48.30000 349.000
48.32000 361.000
48.34000 411.000
48.36000 463.000
48.38000 551.000
48.40000 616.000
48.42000 743.000
48.44000 848.000
48.46000 945.000
48.48000 944.000
48.50000 825.000
48.52000 737.000
48.54000 663.000
48.56000 623.000
48.58000 593.000
48.60000 630.000
48.62000 605.000
48.64000 506.000
48.66000 446.000
48.68000 392.000
48.70000 378.000
48.72000 377.000
48.74000 325.000
48.76000 323.000
48.78000 320.000
48.80000 316.000
48.82000 315.000
48.84000 321.000
48.86000 332.000
48.88000 366.000
48.90000 343.000
48.92000 298.000
48.94000 292.000
48.96000 342.000
48.98000 306.000
49.00000 352.000
49.02000 342.000
49.04000 319.000
49.06000 315.000
49.08000 329.000
49.10000 317.000
49.12000 331.000
49.14000 308.000
49.16000 328.000
49.18000 333.000
49.20000 312.000
49.22000 306.000
49.24000 308.000
49.26000 290.000
49.28000 312.000
49.30000 311.000
49.32000 316.000
49.34000 310.000
49.36000 300.000
49.38000 332.000
49.40000 311.000
49.42000 308.000
49.44000 305.000
49.46000 323.000
49.48000 320.000
49.50000 318.000
49.52000 323.000
49.54000 324.000
49.56000 337.000
49.58000 313.000
49.60000 308.000
49.62000 307.000
49.64000 303.000
49.66000 318.000
49.68000 352.000
49.70000 332.000
49.72000 333.000
49.74000 355.000
49.76000 333.000
49.78000 297.000
49.80000 327.000
49.82000 324.000
49.84000 336.000
49.86000 306.000
49.88000 325.000
49.90000 315.000
49.92000 321.000
49.94000 323.000
49.96000 304.000
49.98000 297.000
50.00000 317.000
50.02000 321.000
50.04000 311.000
50.06000 350.000
50.08000 342.000
50.10000 299.000
50.12000 303.000
50.14000 317.000
50.16000 335.000
50.18000 345.000
50.20000 334.000
50.22000 298.000
50.24000 332.000
50.26000 312.000
50.28000 312.000
50.30000 316.000
50.32000 308.000
50.34000 315.000
50.36000 327.000
50.38000 318.000
50.40000 324.000
50.42000 323.000
50.44000 301.000
50.46000 325.000
50.48000 320.000
50.50000 304.000
50.52000 309.000
50.54000 303.000
50.56000 314.000
50.58000 312.000
50.60000 311.000
50.62000 297.000
50.64000 307.000
50.66000 315.000
50.68000 304.000
50.70000 304.000
50.72000 344.000
50.74000 322.000
50.76000 315.000
50.78000 292.000
50.80000 311.000
50.82000 295.000
50.84000 316.000
50.86000 299.000
50.88000 327.000
50.90000 318.000
50.92000 306.000
50.94000 304.000
50.96000 344.000
50.98000 304.000
51.00000 318.000
51.02000 299.000
51.04000 340.000
51.06000 295.000
51.08000 332.000
51.10000 331.000
51.12000 326.000
51.14000 340.000
51.16000 322.000
51.18000 317.000
51.20000 297.000
51.22000 305.000
51.24000 317.000
51.26000 314.000
51.28000 303.000
51.30000 316.000
51.32000 340.000
51.34000 313.000
51.36000 285.000
51.38000 328.000
51.40000 327.000
51.42000 315.000
51.44000 338.000
51.46000 321.000
51.48000 318.000
51.50000 323.000
51.52000 342.000
51.54000 330.000
51.56000 331.000
51.58000 322.000
51.60000 330.000
51.62000 345.000
51.64000 323.000
51.66000 325.000
51.68000 326.000
51.70000 348.000
51.72000 336.000
51.74000 342.000
51.76000 338.000
51.78000 342.000
51.80000 352.000
51.82000 355.000
51.84000 351.000
51.86000 388.000
51.88000 356.000
51.90000 343.000
51.92000 355.000
51.94000 346.000
51.96000 404.000
51.98000 394.000
52.00000 399.000
52.02000 476.000
52.04000 483.000
52.06000 512.000
52.08000 574.000
52.10000 650.000
52.12000 849.000
52.14000 1108.000
52.16000 1347.000
52.18000 1707.000
52.20000 1944.000
52.22000 1944.000
52.24000 1654.000
52.26000 1292.000
52.28000 1162.000
52.30000 1123.000
52.32000 1127.000
52.34000 1203.000
52.36000 1147.000
52.38000 967.000
52.40000 748.000
52.42000 566.000
52.44000 486.000
52.46000 435.000
52.48000 372.000
52.50000 384.000
52.52000 396.000
52.54000 341.000
52.56000 336.000
52.58000 341.000
52.60000 360.000
52.62000 356.000
52.64000 354.000
52.66000 350.000
52.68000 358.000
52.70000 386.000
52.72000 365.000
52.74000 360.000
52.76000 391.000
52.78000 373.000
52.80000 343.000
52.82000 364.000
52.84000 367.000
52.86000 394.000
52.88000 392.000
52.90000 390.000
52.92000 393.000
52.94000 393.000
52.96000 374.000
52.98000 404.000
53.00000 386.000
53.02000 439.000
53.04000 442.000
53.06000 417.000
53.08000 433.000
53.10000 451.000
53.12000 477.000
53.14000 484.000
53.16000 537.000
53.18000 565.000
53.20000 579.000
53.22000 641.000
53.24000 706.000
53.26000 790.000
53.28000 1041.000
53.30000 1347.000
53.32000 1864.000
53.34000 2605.000
53.36000 3561.000
53.38000 4782.000
53.40000 5845.000
53.42000 5804.000
53.44000 4963.000
53.46000 3848.000
53.48000 3006.000
53.50000 2728.000
53.52000 2847.000
53.54000 3146.000
53.56000 3208.000
53.58000 2688.000
53.60000 1897.000
53.62000 1319.000
53.64000 932.000
53.66000 672.000
53.68000 564.000
53.70000 546.000
53.72000 502.000
53.74000 506.000
53.76000 473.000
53.78000 453.000
53.80000 441.000
53.82000 390.000
53.84000 427.000
53.86000 422.000
53.88000 397.000
53.90000 357.000
53.92000 375.000
53.94000 366.000
53.96000 349.000
53.98000 376.000
54.00000 394.000
54.02000 363.000
54.04000 326.000
54.06000 345.000
54.08000 364.000
54.10000 379.000
54.12000 362.000
54.14000 353.000
54.16000 367.000
54.18000 347.000
54.20000 359.000
54.22000 350.000
54.24000 336.000
54.26000 328.000
54.28000 324.000
54.30000 345.000
54.32000 327.000
54.34000 333.000
54.36000 335.000
54.38000 350.000
54.40000 389.000
54.42000 327.000
54.44000 329.000
54.46000 348.000
54.48000 334.000
54.50000 349.000
54.52000 352.000
54.54000 356.000
54.56000 354.000
54.58000 356.000
54.60000 353.000
54.62000 380.000
54.64000 356.000
54.66000 329.000
54.68000 345.000
54.70000 344.000
54.72000 351.000
54.74000 318.000
54.76000 352.000
54.78000 359.000
54.80000 373.000
54.82000 369.000
54.84000 341.000
54.86000 350.000
54.88000 370.000
54.90000 343.000
54.92000 350.000
54.94000 354.000
54.96000 367.000
54.98000 336.000
55.00000 357.000
55.02000 391.000
55.04000 404.000
55.06000 361.000
55.08000 353.000
55.10000 364.000
55.12000 384.000
55.14000 409.000
55.16000 383.000
55.18000 408.000
55.20000 389.000
55.22000 402.000
55.24000 411.000
55.26000 428.000
55.28000 427.000
55.30000 402.000
55.32000 457.000
55.34000 468.000
55.36000 469.000
55.38000 515.000
55.40000 520.000
55.42000 508.000
55.44000 528.000
55.46000 563.000
55.48000 615.000
55.50000 672.000
55.52000 687.000
55.54000 736.000
55.56000 803.000
55.58000 891.000
55.60000 1036.000
55.62000 1284.000
55.64000 1660.000
55.66000 2250.000
55.68000 3314.000
55.70000 4717.000
55.72000 6385.000
55.74000 8271.000
55.76000 9237.000
55.78000 8850.000
55.80000 7137.000
55.82000 5250.000
55.84000 4397.000
55.86000 4062.000
55.88000 4380.000
55.90000 4874.000
55.92000 4838.000
55.94000 4188.000
55.96000 3035.000
55.98000 2037.000
56.00000 1366.000
56.02000 1008.000
56.04000 789.000
56.06000 694.000
56.08000 640.000
56.10000 555.000
56.12000 563.000
56.14000 604.000
56.16000 536.000
56.18000 461.000
56.20000 467.000
56.22000 464.000
56.24000 475.000
56.26000 444.000
56.28000 423.000
56.30000 413.000
56.32000 441.000
56.34000 417.000
56.36000 452.000
56.38000 428.000
56.40000 398.000
56.42000 402.000
56.44000 406.000
56.46000 451.000
56.48000 454.000
56.50000 444.000
56.52000 458.000
56.54000 467.000
56.56000 473.000
56.58000 459.000
56.60000 487.000
56.62000 513.000
56.64000 530.000
56.66000 521.000
56.68000 530.000
56.70000 557.000
56.72000 603.000
56.74000 660.000
56.76000 704.000
56.78000 833.000
56.80000 999.000
56.82000 1345.000
56.84000 1762.000
56.86000 2423.000
56.88000 3263.000
56.90000 3916.000
56.92000 4179.000
56.94000 3712.000
56.96000 2832.000
56.98000 2171.000
57.00000 1862.000
57.02000 1879.000
57.04000 2070.000
57.06000 2264.000
57.08000 2261.000
57.10000 1941.000
57.12000 1416.000
57.14000 986.000
57.16000 772.000
57.18000 624.000
57.20000 539.000
57.22000 510.000
57.24000 477.000
57.26000 450.000
57.28000 452.000
57.30000 436.000
57.32000 422.000
57.34000 423.000
57.36000 428.000
57.38000 415.000
57.40000 384.000
57.42000 408.000
57.44000 418.000
57.46000 431.000
57.48000 445.000
57.50000 421.000
57.52000 431.000
57.54000 449.000
57.56000 447.000
57.58000 434.000
57.60000 442.000
57.62000 479.000
57.64000 454.000
57.66000 499.000
57.68000 474.000
57.70000 520.000
57.72000 548.000
57.74000 549.000
57.76000 553.000
57.78000 598.000
57.80000 601.000
57.82000 624.000
57.84000 652.000
57.86000 749.000
57.88000 821.000
57.90000 913.000
57.92000 1163.000
57.94000 1534.000
57.96000 2002.000
57.98000 2915.000
58.00000 4050.000
58.02000 5503.000
58.04000 6680.000
58.06000 6860.000
58.08000 5908.000
58.10000 4420.000
58.12000 3265.000
58.14000 2741.000
58.16000 2854.000
58.18000 3264.000
58.20000 3639.000
58.22000 3554.000
58.24000 3063.000
58.26000 2183.000
58.28000 1514.000
58.30000 987.000
58.32000 770.000
58.34000 628.000
58.36000 543.000
58.38000 519.000
58.40000 506.000
58.42000 464.000
58.44000 464.000
58.46000 438.000
58.48000 421.000
58.50000 414.000
58.52000 401.000
58.54000 389.000
58.56000 382.000
58.58000 355.000
58.60000 373.000
58.62000 392.000
58.64000 374.000
58.66000 362.000
58.68000 369.000
58.70000 344.000
58.72000 356.000
58.74000 369.000
58.76000 370.000
58.78000 347.000
58.80000 371.000
58.82000 354.000
58.84000 394.000
58.86000 360.000
58.88000 343.000
58.90000 366.000
58.92000 362.000
58.94000 327.000
58.96000 347.000
58.98000 359.000
59.00000 367.000
59.02000 361.000
59.04000 352.000
59.06000 353.000
59.08000 346.000
59.10000 362.000
59.12000 345.000
59.14000 364.000
59.16000 351.000
59.18000 369.000
59.20000 356.000
59.22000 378.000
59.24000 352.000
59.26000 323.000
59.28000 326.000
59.30000 348.000
59.32000 346.000
59.34000 354.000
59.36000 304.000
59.38000 334.000
59.40000 375.000
59.42000 374.000
59.44000 316.000
59.46000 364.000
59.48000 334.000
59.50000 321.000
59.52000 368.000
59.54000 355.000
59.56000 350.000
59.58000 353.000
59.60000 347.000
59.62000 337.000
59.64000 335.000
59.66000 331.000
59.68000 363.000
59.70000 346.000
59.72000 371.000
59.74000 349.000
59.76000 327.000
59.78000 310.000
59.80000 366.000
59.82000 344.000
59.84000 311.000
59.86000 329.000
59.88000 347.000
59.90000 324.000
59.92000 320.000
59.94000 298.000
59.96000 318.000
59.98000 316.000
60.00000 359.000
60.02000 329.000
60.04000 304.000
60.06000 315.000
60.08000 330.000
60.10000 319.000
60.12000 315.000
60.14000 331.000
60.16000 331.000
60.18000 344.000
60.20000 334.000
60.22000 346.000
60.24000 364.000
60.26000 318.000
60.28000 348.000
60.30000 337.000
60.32000 306.000
60.34000 354.000
60.36000 350.000
60.38000 330.000
60.40000 360.000
60.42000 318.000
60.44000 334.000
60.46000 360.000
60.48000 382.000
60.50000 324.000
60.52000 356.000
60.54000 357.000
60.56000 350.000
60.58000 357.000
60.60000 356.000
60.62000 348.000
60.64000 322.000
60.66000 305.000
60.68000 333.000
60.70000 362.000
60.72000 362.000
60.74000 339.000
60.76000 333.000
60.78000 351.000
60.80000 340.000
60.82000 360.000
60.84000 379.000
60.86000 335.000
60.88000 349.000
60.90000 371.000
60.92000 396.000
60.94000 347.000
60.96000 353.000
60.98000 363.000
61.00000 364.000
61.02000 359.000
61.04000 413.000
61.06000 414.000
61.08000 390.000
61.10000 429.000
61.12000 406.000
61.14000 394.000
61.16000 413.000
61.18000 453.000
61.20000 460.000
61.22000 494.000
61.24000 562.000
61.26000 685.000
61.28000 830.000
61.30000 1128.000
61.32000 1506.000
61.34000 1984.000
61.36000 2440.000
61.38000 2697.000
61.40000 2492.000
61.42000 1994.000
61.44000 1527.000
61.46000 1208.000
61.48000 1082.000
61.50000 1113.000
61.52000 1328.000
61.54000 1494.000
61.56000 1522.000
61.58000 1309.000
61.60000 977.000
61.62000 718.000
61.64000 596.000
61.66000 464.000
61.68000 432.000
61.70000 422.000
61.72000 378.000
61.74000 411.000
61.76000 416.000
61.78000 387.000
61.80000 389.000
61.82000 368.000
61.84000 410.000
61.86000 379.000
61.88000 390.000
61.90000 373.000
61.92000 379.000
61.94000 385.000
61.96000 394.000
61.98000 386.000
62.00000 372.000
62.02000 372.000
62.04000 392.000
62.06000 402.000
62.08000 350.000
62.10000 402.000
62.12000 410.000
62.14000 421.000
62.16000 448.000
62.18000 425.000
62.20000 429.000
62.22000 453.000
62.24000 499.000
62.26000 507.000
62.28000 513.000
62.30000 590.000
62.32000 635.000
62.34000 747.000
62.36000 915.000
62.38000 1271.000
62.40000 1676.000
62.42000 2279.000
62.44000 2984.000
62.46000 3468.000
62.48000 3427.000
62.50000 2840.000
62.52000 2058.000
62.54000 1586.000
62.56000 1333.000
62.58000 1393.000
62.60000 1548.000
62.62000 1861.000
62.64000 1930.000
62.66000 1776.000
62.68000 1417.000
62.70000 1025.000
62.72000 777.000
62.74000 572.000
62.76000 527.000
62.78000 470.000
62.80000 442.000
62.82000 399.000
62.84000 382.000
62.86000 385.000
62.88000 380.000
62.90000 380.000
62.92000 363.000
62.94000 385.000
62.96000 372.000
62.98000 387.000
63.00000 359.000
63.02000 376.000
63.04000 351.000
63.06000 341.000
63.08000 312.000
63.10000 332.000
63.12000 328.000
63.14000 351.000
63.16000 355.000
63.18000 333.000
63.20000 365.000
63.22000 351.000
63.24000 307.000
63.26000 320.000
63.28000 332.000
63.30000 340.000
63.32000 349.000
63.34000 360.000
63.36000 320.000
63.38000 337.000
63.40000 344.000
63.42000 347.000
63.44000 350.000
63.46000 324.000
63.48000 352.000
63.50000 383.000
63.52000 406.000
63.54000 368.000
63.56000 323.000
63.58000 356.000
63.60000 334.000
63.62000 306.000
63.64000 330.000
63.66000 327.000
63.68000 353.000
63.70000 323.000
63.72000 328.000
63.74000 326.000
63.76000 333.000
63.78000 340.000
63.80000 328.000
63.82000 331.000
63.84000 300.000
63.86000 290.000
63.88000 308.000
63.90000 310.000
63.92000 312.000
63.94000 325.000
63.96000 364.000
63.98000 351.000
64.00000 340.000
64.02000 323.000
64.04000 319.000
64.06000 314.000
64.08000 342.000
64.10000 324.000
64.12000 305.000
64.14000 332.000
64.16000 322.000
64.18000 333.000
64.20000 322.000
64.22000 283.000
64.24000 335.000
64.26000 355.000
64.28000 322.000
64.30000 302.000
64.32000 340.000
64.34000 320.000
64.36000 281.000
64.38000 304.000
64.40000 336.000
64.42000 340.000
64.44000 338.000
64.46000 333.000
64.48000 346.000
64.50000 322.000
64.52000 365.000
64.54000 344.000
64.56000 320.000
64.58000 352.000
64.60000 325.000
64.62000 380.000
64.64000 356.000
64.66000 347.000
64.68000 334.000
64.70000 318.000
64.72000 325.000
64.74000 316.000
64.76000 361.000
64.78000 349.000
64.80000 339.000
64.82000 323.000
64.84000 334.000
64.86000 310.000
64.88000 326.000
64.90000 333.000
64.92000 332.000
64.94000 315.000
64.96000 333.000
64.98000 324.000
65.00000 331.000
65.02000 312.000
65.04000 317.000
65.06000 291.000
65.08000 304.000
65.10000 299.000
65.12000 329.000
65.14000 314.000
65.16000 311.000
65.18000 312.000
65.20000 306.000
65.22000 310.000
65.24000 332.000
65.26000 333.000
65.28000 329.000
65.30000 322.000
65.32000 325.000
65.34000 368.000
65.36000 353.000
65.38000 350.000
65.40000 352.000
65.42000 347.000
65.44000 348.000
65.46000 379.000
65.48000 347.000
65.50000 362.000
65.52000 395.000
65.54000 436.000
65.56000 452.000
65.58000 557.000
65.60000 630.000
65.62000 810.000
65.64000 957.000
65.66000 1063.000
65.68000 997.000
65.70000 839.000
65.72000 701.000
65.74000 557.000
65.76000 547.000
65.78000 570.000
65.80000 572.000
65.82000 608.000
65.84000 682.000
65.86000 682.000
65.88000 602.000
65.90000 484.000
65.92000 419.000
65.94000 405.000
65.96000 367.000
65.98000 351.000
66.00000 363.000
66.02000 347.000
66.04000 348.000
66.06000 333.000
66.08000 297.000
66.10000 321.000
66.12000 323.000
66.14000 303.000
66.16000 321.000
66.18000 346.000
66.20000 322.000
66.22000 356.000
66.24000 317.000
66.26000 315.000
66.28000 312.000
66.30000 310.000
66.32000 336.000
66.34000 329.000
66.36000 338.000
66.38000 336.000
66.40000 314.000
66.42000 326.000
66.44000 326.000
66.46000 312.000
66.48000 331.000
66.50000 346.000
66.52000 351.000
66.54000 355.000
66.56000 369.000
66.58000 418.000
66.60000 424.000
66.62000 484.000
66.64000 571.000
66.66000 728.000
66.68000 870.000
66.70000 955.000
66.72000 961.000
66.74000 833.000
66.76000 709.000
66.78000 559.000
66.80000 497.000
66.82000 489.000
66.84000 496.000
66.86000 593.000
66.88000 621.000
66.90000 626.000
66.92000 587.000
66.94000 522.000
66.96000 452.000
66.98000 402.000
67.00000 375.000
67.02000 367.000
67.04000 322.000
67.06000 324.000
67.08000 364.000
67.10000 330.000
67.12000 341.000
67.14000 327.000
67.16000 340.000
67.18000 323.000
67.20000 333.000
67.22000 326.000
67.24000 325.000
67.26000 328.000
67.28000 333.000
67.30000 327.000
67.32000 337.000
67.34000 322.000
67.36000 316.000
67.38000 302.000
67.40000 314.000
67.42000 353.000
67.44000 337.000
67.46000 311.000
67.48000 347.000
67.50000 319.000
67.52000 303.000
67.54000 322.000
67.56000 327.000
67.58000 323.000
67.60000 297.000
67.62000 290.000
67.64000 306.000
67.66000 333.000
67.68000 311.000
67.70000 332.000
67.72000 336.000
67.74000 331.000
67.76000 337.000
67.78000 337.000
67.80000 333.000
67.82000 339.000
67.84000 355.000
67.86000 317.000
67.88000 314.000
67.90000 312.000
67.92000 301.000
67.94000 328.000
67.96000 339.000
67.98000 304.000
68.00000 316.000
68.02000 308.000
68.04000 303.000
68.06000 330.000
68.08000 313.000
68.10000 302.000
68.12000 292.000
68.14000 306.000
68.16000 309.000
68.18000 289.000
68.20000 301.000
68.22000 299.000
68.24000 336.000
68.26000 323.000
68.28000 342.000
68.30000 306.000
68.32000 289.000
68.34000 330.000
68.36000 332.000
68.38000 347.000
68.40000 341.000
68.42000 317.000
68.44000 335.000
68.46000 316.000
68.48000 315.000
68.50000 320.000
68.52000 313.000
68.54000 286.000
68.56000 324.000
68.58000 342.000
68.60000 340.000
68.62000 347.000
68.64000 309.000
68.66000 289.000
68.68000 324.000
68.70000 307.000
68.72000 308.000
68.74000 327.000
68.76000 297.000
68.78000 326.000
68.80000 347.000
68.82000 341.000
68.84000 313.000
68.86000 321.000
68.88000 304.000
68.90000 308.000
68.92000 333.000
68.94000 340.000
68.96000 316.000
68.98000 313.000
69.00000 323.000
69.02000 314.000
69.04000 327.000
69.06000 303.000
69.08000 331.000
69.10000 315.000
69.12000 310.000
69.14000 335.000
69.16000 325.000
69.18000 302.000
69.20000 333.000
69.22000 304.000
69.24000 323.000
69.26000 312.000
69.28000 319.000
69.30000 346.000
69.32000 322.000
69.34000 356.000
69.36000 301.000
69.38000 324.000
69.40000 333.000
69.42000 325.000
69.44000 318.000
69.46000 332.000
69.48000 329.000
69.50000 336.000
69.52000 307.000
69.54000 343.000
69.56000 352.000
69.58000 340.000
69.60000 352.000
69.62000 340.000
69.64000 353.000
69.66000 371.000
69.68000 377.000
69.70000 436.000
69.72000 509.000
69.74000 583.000
69.76000 754.000
69.78000 922.000
69.80000 932.000
69.82000 900.000
69.84000 762.000
69.86000 602.000
69.88000 540.000
69.90000 501.000
69.92000 485.000
69.94000 504.000
69.96000 551.000
69.98000 577.000
70.00000 651.000
70.02000 587.000
70.04000 549.000
70.06000 478.000
70.08000 409.000
70.10000 352.000
70.12000 381.000
70.14000 384.000
70.16000 362.000
70.18000 349.000
70.20000 352.000
70.22000 359.000
70.24000 328.000
70.26000 356.000
70.28000 348.000
70.30000 346.000
70.32000 351.000
70.34000 370.000
70.36000 335.000
70.38000 331.000
70.40000 330.000
70.42000 354.000
70.44000 361.000
70.46000 365.000
70.48000 329.000
70.50000 347.000
70.52000 396.000
70.54000 383.000
70.56000 396.000
70.58000 393.000
70.60000 396.000
70.62000 398.000
70.64000 416.000
70.66000 455.000
70.68000 518.000
70.70000 585.000
70.72000 707.000
70.74000 901.000
70.76000 1126.000
70.78000 1450.000
70.80000 1792.000
70.82000 1902.000
70.84000 1760.000
70.86000 1437.000
70.88000 1054.000
70.90000 779.000
70.92000 708.000
70.94000 710.000
70.96000 801.000
70.98000 1022.000
71.00000 1084.000
71.02000 1128.000
71.04000 1058.000
71.06000 902.000
71.08000 698.000
71.10000 525.000
71.12000 466.000
71.14000 426.000
71.16000 420.000
71.18000 373.000
71.20000 369.000
71.22000 368.000
71.24000 352.000
71.26000 349.000
71.28000 315.000
71.30000 348.000
71.32000 367.000
71.34000 347.000
71.36000 373.000
71.38000 312.000
71.40000 339.000
71.42000 368.000
71.44000 322.000
71.46000 336.000
71.48000 339.000
71.50000 329.000
71.52000 349.000
71.54000 325.000
71.56000 324.000
71.58000 317.000
71.60000 320.000
71.62000 345.000
71.64000 343.000
71.66000 338.000
71.68000 327.000
71.70000 348.000
71.72000 347.000
71.74000 329.000
71.76000 331.000
71.78000 316.000
71.80000 329.000
71.82000 298.000
71.84000 339.000
71.86000 304.000
71.88000 327.000
71.90000 313.000
71.92000 324.000
71.94000 334.000
71.96000 309.000
71.98000 317.000
72.00000 334.000
72.02000 353.000
72.04000 358.000
72.06000 307.000
72.08000 354.000
72.10000 357.000
72.12000 329.000
72.14000 341.000
72.16000 332.000
72.18000 334.000
72.20000 361.000
72.22000 362.000
72.24000 368.000
72.26000 353.000
72.28000 378.000
72.30000 376.000
72.32000 395.000
72.34000 393.000
72.36000 413.000
72.38000 393.000
72.40000 413.000
72.42000 433.000
72.44000 443.000
72.46000 466.000
72.48000 477.000
72.50000 475.000
72.52000 455.000
72.54000 492.000
72.56000 509.000
72.58000 564.000
72.60000 576.000
72.62000 641.000
72.64000 686.000
72.66000 787.000
72.68000 858.000
72.70000 1060.000
72.72000 1341.000
72.74000 1878.000
72.76000 2552.000
72.78000 3589.000
72.80000 4862.000
72.82000 5778.000
72.84000 6077.000
72.86000 5261.000
72.88000 3923.000
72.90000 2805.000
72.92000 2018.000
72.94000 1698.000
72.96000 1701.000
72.98000 2029.000
73.00000 2457.000
73.02000 3000.000
73.04000 3274.000
73.06000 3066.000
73.08000 2496.000
73.10000 1816.000
73.12000 1289.000
73.14000 934.000
73.16000 716.000
73.18000 653.000
73.20000 565.000
73.22000 463.000
73.24000 471.000
73.26000 466.000
73.28000 459.000
73.30000 477.000
73.32000 433.000
73.34000 433.000
73.36000 437.000
73.38000 439.000
73.40000 377.000
73.42000 411.000
73.44000 416.000
73.46000 414.000
73.48000 422.000
73.50000 371.000
73.52000 397.000
73.54000 376.000
73.56000 415.000
73.58000 385.000
73.60000 404.000
73.62000 427.000
73.64000 423.000
73.66000 468.000
73.68000 450.000
73.70000 548.000
73.72000 633.000
73.74000 792.000
73.76000 967.000
73.78000 1241.000
73.80000 1569.000
73.82000 1915.000
73.84000 1888.000
73.86000 1720.000
73.88000 1316.000
73.90000 968.000
73.92000 800.000
73.94000 669.000
73.96000 705.000
73.98000 767.000
74.00000 962.000
74.02000 1066.000
74.04000 1123.000
74.06000 1081.000
74.08000 959.000
74.10000 804.000
74.12000 651.000
74.14000 494.000
74.16000 455.000
74.18000 440.000
74.20000 382.000
74.22000 393.000
74.24000 375.000
74.26000 381.000
74.28000 358.000
74.30000 361.000
74.32000 399.000
74.34000 365.000
74.36000 373.000
74.38000 356.000
74.40000 380.000
74.42000 363.000
74.44000 333.000
74.46000 333.000
74.48000 383.000
74.50000 380.000
74.52000 371.000
74.54000 340.000
74.56000 407.000
74.58000 369.000
74.60000 389.000
74.62000 389.000
74.64000 410.000
74.66000 425.000
74.68000 462.000
74.70000 486.000
74.72000 568.000
74.74000 678.000
74.76000 857.000
74.78000 1149.000
74.80000 1355.000
74.82000 1578.000
74.84000 1460.000
74.86000 1248.000
74.88000 974.000
74.90000 771.000
74.92000 639.000
74.94000 572.000
74.96000 597.000
74.98000 666.000
75.00000 763.000
75.02000 855.000
75.04000 933.000
75.06000 972.000
75.08000 776.000
75.10000 666.000
75.12000 576.000
75.14000 427.000
75.16000 430.000
75.18000 380.000
75.20000 354.000
75.22000 369.000
75.24000 380.000
75.26000 328.000
75.28000 360.000
75.30000 351.000
75.32000 308.000
75.34000 321.000
75.36000 317.000
75.38000 351.000
75.40000 340.000
75.42000 343.000
75.44000 340.000
75.46000 325.000
75.48000 339.000
75.50000 328.000
75.52000 326.000
75.54000 330.000
75.56000 328.000
75.58000 320.000
75.60000 341.000
75.62000 353.000
75.64000 333.000
75.66000 329.000
75.68000 322.000
75.70000 330.000
75.72000 348.000
75.74000 338.000
75.76000 390.000
75.78000 404.000
75.80000 447.000
75.82000 390.000
75.84000 381.000
75.86000 383.000
75.88000 348.000
75.90000 361.000
75.92000 333.000
75.94000 295.000
75.96000 330.000
75.98000 349.000
76.00000 348.000
76.02000 367.000
76.04000 360.000
76.06000 356.000
76.08000 376.000
76.10000 348.000
76.12000 335.000
76.14000 322.000
76.16000 301.000
76.18000 322.000
76.20000 329.000
76.22000 323.000
76.24000 317.000
76.26000 326.000
76.28000 326.000
76.30000 315.000
76.32000 325.000
76.34000 303.000
76.36000 293.000
76.38000 301.000
76.40000 310.000
76.42000 318.000
76.44000 314.000
76.46000 294.000
76.48000 315.000
76.50000 331.000
76.52000 323.000
76.54000 335.000
76.56000 299.000
76.58000 345.000
76.60000 318.000
76.62000 301.000
76.64000 311.000
76.66000 337.000
76.68000 327.000
76.70000 347.000
76.72000 332.000
76.74000 292.000
76.76000 317.000
76.78000 330.000
76.80000 315.000
76.82000 307.000
76.84000 330.000
76.86000 337.000
76.88000 330.000
76.90000 342.000
76.92000 323.000
76.94000 320.000
76.96000 307.000
76.98000 351.000
77.00000 333.000
77.02000 366.000
77.04000 332.000
77.06000 357.000
77.08000 336.000
77.10000 345.000
77.12000 351.000
77.14000 309.000
77.16000 316.000
77.18000 330.000
77.20000 360.000
77.22000 328.000
77.24000 342.000
77.26000 314.000
77.28000 327.000
77.30000 347.000
77.32000 355.000
77.34000 346.000
77.36000 379.000
77.38000 372.000
77.40000 352.000
77.42000 386.000
77.44000 399.000
77.46000 398.000
77.48000 382.000
77.50000 371.000
77.52000 355.000
77.54000 377.000
77.56000 397.000
77.58000 413.000
77.60000 430.000
77.62000 462.000
77.64000 472.000
77.66000 537.000
77.68000 617.000
77.70000 783.000
77.72000 1000.000
77.74000 1303.000
77.76000 1547.000
77.78000 1684.000
77.80000 1535.000
77.82000 1284.000
77.84000 996.000
77.86000 751.000
77.88000 635.000
77.90000 591.000
77.92000 604.000
77.94000 660.000
77.96000 793.000
77.98000 888.000
78.00000 951.000
78.02000 984.000
78.04000 874.000
78.06000 746.000
78.08000 607.000
78.10000 487.000
78.12000 451.000
78.14000 405.000
78.16000 368.000
78.18000 360.000
78.20000 330.000
78.22000 354.000
78.24000 326.000
78.26000 342.000
78.28000 368.000
78.30000 324.000
78.32000 348.000
78.34000 341.000
78.36000 361.000
78.38000 320.000
78.40000 331.000
78.42000 349.000
78.44000 359.000
78.46000 335.000
78.48000 332.000
78.50000 324.000
78.52000 318.000
78.54000 323.000
78.56000 332.000
78.58000 330.000
78.60000 349.000
78.62000 324.000
78.64000 331.000
78.66000 379.000
78.68000 368.000
78.70000 419.000
78.72000 431.000
78.74000 498.000
78.76000 505.000
78.78000 478.000
78.80000 443.000
78.82000 424.000
78.84000 367.000
78.86000 375.000
78.88000 337.000
78.90000 369.000
78.92000 351.000
78.94000 372.000
78.96000 383.000
78.98000 409.000
79.00000 399.000
79.02000 388.000
79.04000 403.000
79.06000 354.000
79.08000 335.000
79.10000 313.000
79.12000 342.000
79.14000 315.000
79.16000 320.000
79.18000 322.000
79.20000 326.000
79.22000 311.000
79.24000 311.000
79.26000 331.000
79.28000 329.000
79.30000 324.000
79.32000 311.000
79.34000 349.000
79.36000 321.000
79.38000 332.000
79.40000 323.000
79.42000 338.000
79.44000 334.000
79.46000 364.000
79.48000 335.000
79.50000 368.000
79.52000 345.000
79.54000 314.000
79.56000 332.000
79.58000 347.000
79.60000 387.000
79.62000 375.000
79.64000 356.000
79.66000 382.000
79.68000 408.000
79.70000 475.000
79.72000 470.000
79.74000 489.000
79.76000 456.000
79.78000 409.000
79.80000 402.000
79.82000 356.000
79.84000 370.000
79.86000 370.000
79.88000 370.000
79.90000 377.000
79.92000 387.000
79.94000 372.000
79.96000 383.000
79.98000 389.000
80.00000 369.000
80.02000 348.000
80.04000 317.000
80.06000 343.000
80.08000 362.000
80.10000 355.000
80.12000 336.000
80.14000 327.000
80.16000 344.000
80.18000 324.000
80.20000 318.000
80.22000 320.000
80.24000 301.000
80.26000 332.000
80.28000 327.000
80.30000 336.000
80.32000 363.000
80.34000 343.000
80.36000 331.000
80.38000 326.000
80.40000 334.000
80.42000 331.000
80.44000 291.000
80.46000 315.000
80.48000 308.000
80.50000 298.000
80.52000 307.000
80.54000 327.000
80.56000 352.000
80.58000 311.000
80.60000 332.000
80.62000 326.000
80.64000 314.000
80.66000 332.000
80.68000 338.000
80.70000 309.000
80.72000 313.000
80.74000 320.000
80.76000 310.000
80.78000 345.000
80.80000 325.000
80.82000 326.000
80.84000 329.000
80.86000 341.000
80.88000 325.000
80.90000 311.000
80.92000 287.000
80.94000 304.000
80.96000 327.000
80.98000 336.000
81.00000 286.000
81.02000 295.000
81.04000 309.000
81.06000 312.000
81.08000 325.000
81.10000 299.000
81.12000 296.000
81.14000 322.000
81.16000 320.000
81.18000 332.000
81.20000 360.000
81.22000 335.000
81.24000 365.000
81.26000 319.000
81.28000 332.000
81.30000 341.000
81.32000 347.000
81.34000 337.000
81.36000 316.000
81.38000 335.000
81.40000 360.000
81.42000 340.000
81.44000 336.000
81.46000 333.000
81.48000 375.000
81.50000 352.000
81.52000 351.000
81.54000 375.000
81.56000 419.000
81.58000 445.000
81.60000 532.000
81.62000 604.000
81.64000 722.000
81.66000 784.000
81.68000 787.000
81.70000 753.000
81.72000 634.000
81.74000 536.000
81.76000 475.000
81.78000 420.000
81.80000 414.000
81.82000 400.000
81.84000 409.000
81.86000 458.000
81.88000 522.000
81.90000 557.000
81.92000 577.000
81.94000 568.000
81.96000 506.000
81.98000 441.000
82.00000 401.000
82.02000 376.000
82.04000 363.000
82.06000 352.000
82.08000 334.000
82.10000 320.000
82.12000 327.000
82.14000 329.000
82.16000 328.000
82.18000 355.000
82.20000 347.000
82.22000 368.000
82.24000 358.000
82.26000 352.000
82.28000 353.000
82.30000 355.000
82.32000 328.000
82.34000 388.000
82.36000 366.000
82.38000 358.000
82.40000 370.000
82.42000 393.000
82.44000 392.000
82.46000 434.000
82.48000 440.000
82.50000 514.000
82.52000 524.000
82.54000 619.000
82.56000 771.000
82.58000 972.000
82.60000 1185.000
82.62000 1394.000
82.64000 1413.000
82.66000 1340.000
82.68000 1080.000
82.70000 812.000
82.72000 643.000
82.74000 560.000
82.76000 522.000
82.78000 517.000
82.80000 569.000
82.82000 639.000
82.84000 744.000
82.86000 810.000
82.88000 881.000
82.90000 903.000
82.92000 753.000
82.94000 631.000
82.96000 536.000
82.98000 477.000
83.00000 402.000
83.02000 369.000
83.04000 356.000
83.06000 359.000
83.08000 343.000
83.10000 340.000
83.12000 326.000
83.14000 317.000
83.16000 344.000
83.18000 354.000
83.20000 350.000
83.22000 320.000
83.24000 349.000
83.26000 341.000
83.28000 319.000
83.30000 344.000
83.32000 310.000
83.34000 343.000
83.36000 326.000
83.38000 344.000
83.40000 340.000
83.42000 318.000
83.44000 313.000
83.46000 333.000
83.48000 314.000
83.50000 321.000
83.52000 324.000
83.54000 334.000
83.56000 339.000
83.58000 328.000
83.60000 317.000
83.62000 346.000
83.64000 355.000
83.66000 322.000
83.68000 342.000
83.70000 307.000
83.72000 324.000
83.74000 308.000
83.76000 312.000
83.78000 326.000
83.80000 336.000
83.82000 342.000
83.84000 350.000
83.86000 313.000
83.88000 342.000
83.90000 327.000
83.92000 307.000
83.94000 329.000
83.96000 322.000
83.98000 328.000
84.00000 319.000
84.02000 306.000
84.04000 310.000
84.06000 318.000
84.08000 313.000
84.10000 310.000
84.12000 314.000
84.14000 321.000
84.16000 311.000
84.18000 287.000
84.20000 313.000
84.22000 305.000
84.24000 316.000
84.26000 314.000
84.28000 298.000
84.30000 310.000
84.32000 319.000
84.34000 339.000
84.36000 359.000
84.38000 337.000
84.40000 338.000
84.42000 296.000
84.44000 331.000
84.46000 326.000
84.48000 321.000
84.50000 313.000
84.52000 284.000
84.54000 322.000
84.56000 342.000
84.58000 306.000
84.60000 308.000
84.62000 328.000
84.64000 293.000
84.66000 314.000
84.68000 342.000
84.70000 335.000
84.72000 351.000
84.74000 332.000
84.76000 354.000
84.78000 335.000
84.80000 335.000
84.82000 334.000
84.84000 310.000
84.86000 336.000
84.88000 334.000
84.90000 315.000
84.92000 348.000
84.94000 335.000
84.96000 327.000
84.98000 330.000
85.00000 355.000
85.02000 354.000
85.04000 369.000
85.06000 375.000
85.08000 354.000
85.10000 349.000
85.12000 375.000
85.14000 377.000
85.16000 374.000
85.18000 356.000
85.20000 402.000
85.22000 408.000
85.24000 381.000
85.26000 412.000
85.28000 431.000
85.30000 452.000
85.32000 402.000
85.34000 469.000
85.36000 506.000
85.38000 558.000
85.40000 642.000
85.42000 781.000
85.44000 956.000
85.46000 1261.000
85.48000 1545.000
85.50000 1811.000
85.52000 1998.000
85.54000 1839.000
85.56000 1539.000
85.58000 1191.000
85.60000 877.000
85.62000 690.000
85.64000 583.000
85.66000 593.000
85.68000 610.000
85.70000 709.000
85.72000 831.000
85.74000 969.000
85.76000 1096.000
85.78000 1154.000
85.80000 1088.000
85.82000 928.000
85.84000 761.000
85.86000 620.000
85.88000 503.000
85.90000 498.000
85.92000 429.000
85.94000 412.000
85.96000 387.000
85.98000 376.000
86.00000 390.000
86.02000 381.000
86.04000 337.000
86.06000 320.000
86.08000 366.000
86.10000 366.000
86.12000 342.000
86.14000 339.000
86.16000 340.000
86.18000 320.000
86.20000 336.000
86.22000 359.000
86.24000 289.000
86.26000 294.000
86.28000 343.000
86.30000 362.000
86.32000 363.000
86.34000 346.000
86.36000 350.000
86.38000 316.000
86.40000 334.000
86.42000 353.000
86.44000 338.000
86.46000 340.000
86.48000 327.000
86.50000 333.000
86.52000 352.000
86.54000 361.000
86.56000 340.000
86.58000 341.000
86.60000 335.000
86.62000 352.000
86.64000 334.000
86.66000 324.000
86.68000 352.000
86.70000 344.000
86.72000 325.000
86.74000 327.000
86.76000 318.000
86.78000 324.000
86.80000 318.000
86.82000 327.000
86.84000 378.000
86.86000 345.000
86.88000 333.000
86.90000 349.000
86.92000 338.000
86.94000 332.000
86.96000 337.000
86.98000 337.000
87.00000 347.000
87.02000 324.000
87.04000 307.000
87.06000 338.000
87.08000 349.000
87.10000 353.000
87.12000 355.000
87.14000 331.000
87.16000 342.000
87.18000 321.000
87.20000 309.000
87.22000 299.000
87.24000 336.000
87.26000 348.000
87.28000 352.000
87.30000 322.000
87.32000 340.000
87.34000 346.000
87.36000 322.000
87.38000 336.000
87.40000 354.000
87.42000 339.000
87.44000 357.000
87.46000 315.000
87.48000 331.000
87.50000 352.000
87.52000 343.000
87.54000 329.000
87.56000 348.000
87.58000 353.000
87.60000 387.000
87.62000 380.000
87.64000 364.000
87.66000 366.000
87.68000 358.000
87.70000 344.000
87.72000 352.000
87.74000 340.000
87.76000 358.000
87.78000 380.000
87.80000 381.000
87.82000 389.000
87.84000 433.000
87.86000 438.000
87.88000 448.000
87.90000 436.000
87.92000 463.000
87.94000 440.000
87.96000 470.000
87.98000 472.000
88.00000 451.000
88.02000 479.000
88.04000 449.000
88.06000 480.000
88.08000 508.000
88.10000 524.000
88.12000 547.000
88.14000 563.000
88.16000 639.000
88.18000 632.000
88.20000 758.000
88.22000 820.000
88.24000 942.000
88.26000 1174.000
88.28000 1468.000
88.30000 1919.000
88.32000 2676.000
88.34000 3596.000
88.36000 4593.000
88.38000 5280.000
88.40000 5353.000
88.42000 4742.000
88.44000 3622.000
88.46000 2524.000
88.48000 1797.000
88.50000 1358.000
88.52000 1168.000
88.54000 1101.000
88.56000 1188.000
88.58000 1426.000
88.60000 1775.000
88.62000 2157.000
88.64000 2593.000
88.66000 2926.000
88.68000 2821.000
88.70000 2486.000
88.72000 1912.000
88.74000 1449.000
88.76000 1071.000
88.78000 832.000
88.80000 685.000
88.82000 614.000
88.84000 519.000
88.86000 500.000
88.88000 483.000
88.90000 463.000
88.92000 469.000
88.94000 459.000
88.96000 479.000
88.98000 469.000
89.00000 424.000
89.02000 437.000
89.04000 449.000
89.06000 411.000
89.08000 432.000
89.10000 416.000
89.12000 422.000
89.14000 438.000
89.16000 440.000
89.18000 454.000
89.20000 455.000
89.22000 502.000
89.24000 565.000
89.26000 612.000
89.28000 751.000
89.30000 885.000
89.32000 1048.000
89.34000 1119.000
89.36000 1042.000
89.38000 983.000
89.40000 802.000
89.42000 685.000
89.44000 576.000
89.46000 531.000
89.48000 456.000
89.50000 471.000
89.52000 469.000
89.54000 489.000
89.56000 550.000
89.58000 603.000
89.60000 685.000
89.62000 708.000
89.64000 718.000
89.66000 690.000
89.68000 625.000
89.70000 503.000
89.72000 454.000
89.74000 432.000
89.76000 399.000
89.78000 410.000
89.80000 418.000
89.82000 396.000
89.84000 423.000
89.86000 406.000
89.88000 386.000
89.90000 388.000
89.92000 405.000
89.94000 424.000
89.96000 374.000
89.98000 356.000
