5.00000 444.000
5.02000 422.000
5.04000 403.000
5.06000 389.000
5.08000 382.000
5.10000 409.000
5.12000 374.000
5.14000 371.000
5.16000 402.000
5.18000 388.000
5.20000 409.000
5.22000 381.000
5.24000 363.000
5.26000 373.000
5.28000 376.000
5.30000 408.000
5.32000 368.000
5.34000 375.000
5.36000 379.000
5.38000 386.000
5.40000 389.000
5.42000 376.000
5.44000 386.000
5.46000 392.000
5.48000 398.000
5.50000 403.000
5.52000 386.000
5.54000 370.000
5.56000 377.000
5.58000 386.000
5.60000 365.000
5.62000 355.000
5.64000 397.000
5.66000 400.000
5.68000 399.000
5.70000 372.000
5.72000 364.000
5.74000 373.000
5.76000 376.000
5.78000 394.000
5.80000 382.000
5.82000 372.000
5.84000 369.000
5.86000 395.000
5.88000 375.000
5.90000 376.000
5.92000 387.000
5.94000 371.000
5.96000 378.000
5.98000 394.000
6.00000 360.000
6.02000 384.000
6.04000 377.000
6.06000 393.000
6.08000 391.000
6.10000 398.000
6.12000 363.000
6.14000 370.000
6.16000 368.000
6.18000 366.000
6.20000 356.000
6.22000 374.000
6.24000 396.000
6.26000 389.000
6.28000 364.000
6.30000 376.000
6.32000 396.000
6.34000 400.000
6.36000 377.000
6.38000 383.000
6.40000 379.000
6.42000 390.000
6.44000 390.000
6.46000 388.000
6.48000 368.000
6.50000 372.000
6.52000 355.000
6.54000 388.000
6.56000 389.000
6.58000 355.000
6.60000 399.000
6.62000 389.000
6.64000 369.000
6.66000 324.000
6.68000 405.000
6.70000 362.000
6.72000 371.000
6.74000 376.000
6.76000 397.000
6.78000 363.000
6.80000 383.000
6.82000 385.000
6.84000 397.000
6.86000 400.000
6.88000 363.000
6.90000 367.000
6.92000 368.000
6.94000 371.000
6.96000 401.000
6.98000 390.000
7.00000 379.000
7.02000 378.000
7.04000 396.000
7.06000 395.000
7.08000 406.000
7.10000 393.000
7.12000 388.000
7.14000 389.000
7.16000 392.000
7.18000 381.000
7.20000 414.000
7.22000 377.000
7.24000 371.000
7.26000 394.000
7.28000 397.000
7.30000 374.000
7.32000 363.000
7.34000 385.000
7.36000 432.000
7.38000 385.000
7.40000 357.000
7.42000 401.000
7.44000 379.000
7.46000 371.000
7.48000 386.000
7.50000 363.000
7.52000 409.000
7.54000 375.000
7.56000 388.000
7.58000 401.000
7.60000 380.000
7.62000 409.000
7.64000 388.000
7.66000 358.000
7.68000 401.000
7.70000 388.000
7.72000 387.000
7.74000 400.000
7.76000 357.000
7.78000 355.000
7.80000 354.000
7.82000 349.000
7.84000 376.000
7.86000 391.000
7.88000 389.000
7.90000 384.000
7.92000 416.000
7.94000 374.000
7.96000 394.000
7.98000 357.000
8.00000 397.000
8.02000 338.000
8.04000 371.000
8.06000 389.000
8.08000 379.000
8.10000 388.000
8.12000 405.000
8.14000 402.000
8.16000 406.000
8.18000 363.000
8.20000 385.000
8.22000 389.000
8.24000 379.000
8.26000 373.000
8.28000 371.000
8.30000 382.000
8.32000 386.000
8.34000 389.000
8.36000 393.000
8.38000 436.000
8.40000 378.000
8.42000 372.000
8.44000 404.000
8.46000 380.000
8.48000 381.000
8.50000 384.000
8.52000 387.000
8.54000 382.000
8.56000 376.000
8.58000 359.000
8.60000 394.000
8.62000 373.000
8.64000 414.000
8.66000 366.000
8.68000 375.000
8.70000 370.000
8.72000 381.000
8.74000 386.000
8.76000 361.000
8.78000 346.000
8.80000 377.000
8.82000 383.000
8.84000 397.000
8.86000 374.000
8.88000 359.000
8.90000 378.000
8.92000 399.000
8.94000 403.000
8.96000 378.000
8.98000 412.000
9.00000 393.000
9.02000 378.000
9.04000 389.000
9.06000 373.000
9.08000 363.000
9.10000 378.000
9.12000 375.000
9.14000 400.000
9.16000 382.000
9.18000 382.000
9.20000 359.000
9.22000 379.000
9.24000 387.000
9.26000 377.000
9.28000 389.000
9.30000 347.000
9.32000 389.000
9.34000 397.000
9.36000 389.000
9.38000 387.000
9.40000 411.000
9.42000 406.000
9.44000 398.000
9.46000 379.000
9.48000 385.000
9.50000 419.000
9.52000 385.000
9.54000 375.000
9.56000 389.000
9.58000 372.000
9.60000 387.000
9.62000 375.000
9.64000 405.000
9.66000 389.000
9.68000 399.000
9.70000 372.000
9.72000 395.000
9.74000 342.000
9.76000 393.000
9.78000 373.000
9.80000 373.000
9.82000 392.000
9.84000 414.000
9.86000 412.000
9.88000 367.000
9.90000 417.000
9.92000 416.000
9.94000 379.000
9.96000 399.000
9.98000 374.000
10.00000 378.000
10.02000 418.000
10.04000 433.000
10.06000 415.000
10.08000 375.000
10.10000 395.000
10.12000 383.000
10.14000 383.000
10.16000 402.000
10.18000 396.000
10.20000 383.000
10.22000 391.000
10.24000 416.000
10.26000 408.000
10.28000 371.000
10.30000 397.000
10.32000 395.000
10.34000 400.000
10.36000 426.000
10.38000 350.000
10.40000 404.000
10.42000 366.000
10.44000 377.000
10.46000 386.000
10.48000 421.000
10.50000 386.000
10.52000 392.000
10.54000 386.000
10.56000 380.000
10.58000 411.000
10.60000 400.000
10.62000 383.000
10.64000 389.000
10.66000 401.000
10.68000 373.000
10.70000 386.000
10.72000 389.000
10.74000 375.000
10.76000 371.000
10.78000 360.000
10.80000 375.000
10.82000 393.000
10.84000 394.000
10.86000 392.000
10.88000 393.000
10.90000 399.000
10.92000 379.000
10.94000 411.000
10.96000 393.000
10.98000 430.000
11.00000 386.000
11.02000 397.000
11.04000 389.000
11.06000 400.000
11.08000 380.000
11.10000 369.000
11.12000 401.000
11.14000 405.000
11.16000 410.000
11.18000 405.000
11.20000 374.000
11.22000 387.000
11.24000 412.000
11.26000 411.000
11.28000 351.000
11.30000 390.000
11.32000 370.000
11.34000 362.000
11.36000 375.000
11.38000 358.000
11.40000 381.000
11.42000 379.000
11.44000 399.000
11.46000 347.000
11.48000 377.000
11.50000 411.000
11.52000 389.000
11.54000 429.000
11.56000 397.000
11.58000 368.000
11.60000 391.000
11.62000 409.000
11.64000 393.000
11.66000 384.000
11.68000 420.000
11.70000 413.000
11.72000 370.000
11.74000 379.000
11.76000 382.000
11.78000 382.000
11.80000 371.000
11.82000 391.000
11.84000 417.000
11.86000 399.000
11.88000 378.000
11.90000 421.000
11.92000 378.000
11.94000 397.000
11.96000 378.000
11.98000 394.000
12.00000 415.000
12.02000 389.000
12.04000 405.000
12.06000 396.000
12.08000 396.000
12.10000 417.000
12.12000 393.000
12.14000 392.000
12.16000 382.000
12.18000 406.000
12.20000 415.000
12.22000 414.000
12.24000 386.000
12.26000 379.000
12.28000 404.000
12.30000 406.000
12.32000 375.000
12.34000 403.000
12.36000 357.000
12.38000 367.000
12.40000 379.000
12.42000 383.000
12.44000 399.000
12.46000 385.000
12.48000 392.000
12.50000 406.000
12.52000 368.000
12.54000 406.000
12.56000 372.000
12.58000 393.000
12.60000 428.000
12.62000 417.000
12.64000 374.000
12.66000 375.000
12.68000 395.000
12.70000 390.000
12.72000 396.000
12.74000 397.000
12.76000 411.000
12.78000 397.000
12.80000 392.000
12.82000 420.000
12.84000 385.000
12.86000 414.000
12.88000 398.000
12.90000 386.000
12.92000 397.000
12.94000 389.000
12.96000 404.000
12.98000 419.000
13.00000 418.000
13.02000 407.000
13.04000 407.000
13.06000 404.000
13.08000 412.000
13.10000 424.000
13.12000 408.000
13.14000 432.000
13.16000 413.000
13.18000 383.000
13.20000 365.000
13.22000 383.000
13.24000 375.000
13.26000 401.000
13.28000 388.000
13.30000 374.000
13.32000 396.000
13.34000 409.000
13.36000 404.000
13.38000 388.000
13.40000 420.000
13.42000 423.000
13.44000 426.000
13.46000 413.000
13.48000 374.000
13.50000 376.000
13.52000 407.000
13.54000 367.000
13.56000 407.000
13.58000 413.000
13.60000 397.000
13.62000 387.000
13.64000 369.000
13.66000 392.000
13.68000 396.000
13.70000 410.000
13.72000 409.000
13.74000 420.000
13.76000 426.000
13.78000 406.000
13.80000 416.000
13.82000 391.000
13.84000 427.000
13.86000 416.000
13.88000 404.000
13.90000 394.000
13.92000 383.000
13.94000 403.000
13.96000 401.000
13.98000 385.000
14.00000 404.000
14.02000 393.000
14.04000 378.000
14.06000 402.000
14.08000 398.000
14.10000 446.000
14.12000 395.000
14.14000 418.000
14.16000 421.000
14.18000 433.000
14.20000 394.000
14.22000 455.000
14.24000 424.000
14.26000 435.000
14.28000 402.000
14.30000 409.000
14.32000 431.000
14.34000 399.000
14.36000 416.000
14.38000 391.000
14.40000 415.000
14.42000 422.000
14.44000 421.000
14.46000 414.000
14.48000 421.000
14.50000 390.000
14.52000 444.000
14.54000 423.000
14.56000 403.000
14.58000 421.000
14.60000 408.000
14.62000 416.000
14.64000 419.000
14.66000 430.000
14.68000 382.000
14.70000 420.000
14.72000 419.000
14.74000 401.000
14.76000 418.000
14.78000 412.000
14.80000 394.000
14.82000 423.000
14.84000 396.000
14.86000 416.000
14.88000 430.000
14.90000 423.000
14.92000 373.000
14.94000 379.000
14.96000 372.000
14.98000 406.000
15.00000 410.000
15.02000 418.000
15.04000 419.000
15.06000 432.000
15.08000 417.000
15.10000 423.000
15.12000 420.000
15.14000 402.000
15.16000 408.000
15.18000 419.000
15.20000 412.000
15.22000 396.000
15.24000 415.000
15.26000 433.000
15.28000 430.000
15.30000 456.000
15.32000 436.000
15.34000 401.000
15.36000 423.000
15.38000 393.000
15.40000 410.000
15.42000 449.000
15.44000 449.000
15.46000 426.000
15.48000 432.000
15.50000 407.000
15.52000 378.000
15.54000 406.000
15.56000 425.000
15.58000 425.000
15.60000 437.000
15.62000 415.000
15.64000 425.000
15.66000 410.000
15.68000 427.000
15.70000 434.000
15.72000 407.000
15.74000 430.000
15.76000 451.000
15.78000 409.000
15.80000 435.000
15.82000 432.000
15.84000 423.000
15.86000 434.000
15.88000 412.000
15.90000 409.000
15.92000 416.000
15.94000 435.000
15.96000 437.000
15.98000 437.000
16.00000 436.000
16.02000 426.000
16.04000 438.000
16.06000 429.000
16.08000 429.000
16.10000 444.000
16.12000 448.000
16.14000 447.000
16.16000 460.000
16.18000 433.000
16.20000 429.000
16.22000 444.000
16.24000 428.000
16.26000 434.000
16.28000 433.000
16.30000 425.000
16.32000 398.000
16.34000 427.000
16.36000 428.000
16.38000 449.000
16.40000 468.000
16.42000 422.000
16.44000 442.000
16.46000 428.000
16.48000 435.000
16.50000 438.000
16.52000 432.000
16.54000 428.000
16.56000 407.000
16.58000 403.000
16.60000 432.000
16.62000 444.000
16.64000 459.000
16.66000 452.000
16.68000 423.000
16.70000 409.000
16.72000 439.000
16.74000 438.000
16.76000 444.000
16.78000 432.000
16.80000 410.000
16.82000 460.000
16.84000 449.000
16.86000 443.000
16.88000 447.000
16.90000 459.000
16.92000 422.000
16.94000 466.000
16.96000 460.000
16.98000 441.000
17.00000 434.000
17.02000 443.000
17.04000 400.000
17.06000 431.000
17.08000 480.000
17.10000 451.000
17.12000 456.000
17.14000 447.000
17.16000 473.000
17.18000 454.000
17.20000 452.000
17.22000 457.000
17.24000 444.000
17.26000 420.000
17.28000 451.000
17.30000 457.000
17.32000 434.000
17.34000 474.000
17.36000 478.000
17.38000 463.000
17.40000 455.000
17.42000 445.000
17.44000 456.000
17.46000 461.000
17.48000 482.000
17.50000 455.000
17.52000 475.000
17.54000 436.000
17.56000 488.000
17.58000 518.000
17.60000 502.000
17.62000 499.000
17.64000 516.000
17.66000 506.000
17.68000 447.000
17.70000 509.000
17.72000 544.000
17.74000 484.000
17.76000 556.000
17.78000 570.000
17.80000 516.000
17.82000 578.000
17.84000 587.000
17.86000 582.000
17.88000 672.000
17.90000 689.000
17.92000 762.000
17.94000 866.000
17.96000 1058.000
17.98000 1234.000
18.00000 1571.000
18.02000 1933.000
18.04000 2397.000
18.06000 3030.000
18.08000 3781.000
18.10000 4849.000
18.12000 6170.000
18.14000 7769.000
18.16000 8904.000
18.18000 8303.000
18.20000 6648.000
18.22000 4586.000
18.24000 2804.000
18.26000 1526.000
18.28000 926.000
18.30000 721.000
18.32000 615.000
18.34000 584.000
18.36000 552.000
18.38000 556.000
18.40000 522.000
18.42000 562.000
18.44000 539.000
18.46000 520.000
18.48000 524.000
18.50000 558.000
18.52000 527.000
18.54000 511.000
18.56000 524.000
18.58000 506.000
18.60000 509.000
18.62000 477.000
18.64000 522.000
18.66000 485.000
18.68000 485.000
18.70000 485.000
18.72000 474.000
18.74000 500.000
18.76000 431.000
18.78000 461.000
18.80000 466.000
18.82000 537.000
18.84000 498.000
18.86000 484.000
18.88000 468.000
18.90000 495.000
18.92000 476.000
18.94000 460.000
18.96000 462.000
18.98000 466.000
19.00000 498.000
19.02000 464.000
19.04000 447.000
19.06000 473.000
19.08000 479.000
19.10000 475.000
19.12000 457.000
19.14000 459.000
19.16000 483.000
19.18000 469.000
19.20000 483.000
19.22000 458.000
19.24000 456.000
19.26000 486.000
19.28000 449.000
19.30000 464.000
19.32000 464.000
19.34000 454.000
19.36000 475.000
19.38000 458.000
19.40000 456.000
19.42000 471.000
19.44000 495.000
19.46000 450.000
19.48000 460.000
19.50000 452.000
19.52000 445.000
19.54000 457.000
19.56000 465.000
19.58000 476.000
19.60000 446.000
19.62000 460.000
19.64000 491.000
19.66000 479.000
19.68000 456.000
19.70000 490.000
19.72000 434.000
19.74000 445.000
19.76000 473.000
19.78000 440.000
19.80000 445.000
19.82000 436.000
19.84000 418.000
19.86000 460.000
19.88000 458.000
19.90000 440.000
19.92000 455.000
19.94000 481.000
19.96000 444.000
19.98000 461.000
20.00000 456.000
20.02000 475.000
20.04000 459.000
20.06000 445.000
20.08000 430.000
20.10000 448.000
20.12000 447.000
20.14000 428.000
20.16000 463.000
20.18000 461.000
20.20000 442.000
20.22000 444.000
20.24000 468.000
20.26000 440.000
20.28000 471.000
20.30000 422.000
20.32000 484.000
20.34000 480.000
20.36000 429.000
20.38000 467.000
20.40000 473.000
20.42000 487.000
20.44000 474.000
20.46000 499.000
20.48000 443.000
20.50000 483.000
20.52000 471.000
20.54000 471.000
20.56000 479.000
20.58000 452.000
20.60000 429.000
20.62000 482.000
20.64000 477.000
20.66000 481.000
20.68000 484.000
20.70000 509.000
20.72000 514.000
20.74000 524.000
20.76000 533.000
20.78000 568.000
20.80000 584.000
20.82000 621.000
20.84000 726.000
20.86000 846.000
20.88000 973.000
20.90000 1219.000
20.92000 1433.000
20.94000 1717.000
20.96000 2078.000
20.98000 2389.000
21.00000 2360.000
21.02000 1985.000
21.04000 1556.000
21.06000 1142.000
21.08000 864.000
21.10000 606.000
21.12000 532.000
21.14000 508.000
21.16000 502.000
21.18000 454.000
21.20000 514.000
21.22000 464.000
21.24000 480.000
21.26000 454.000
21.28000 483.000
21.30000 446.000
21.32000 429.000
21.34000 468.000
21.36000 449.000
21.38000 472.000
21.40000 489.000
21.42000 436.000
21.44000 437.000
21.46000 466.000
21.48000 429.000
21.50000 442.000
21.52000 392.000
21.54000 427.000
21.56000 434.000
21.58000 425.000
21.60000 420.000
21.62000 423.000
21.64000 425.000
21.66000 415.000
21.68000 458.000
21.70000 404.000
21.72000 435.000
21.74000 450.000
21.76000 434.000
21.78000 433.000
21.80000 425.000
21.82000 430.000
21.84000 446.000
21.86000 429.000
21.88000 404.000
21.90000 447.000
21.92000 425.000
21.94000 444.000
21.96000 407.000
21.98000 450.000
22.00000 432.000
22.02000 445.000
22.04000 425.000
22.06000 452.000
22.08000 482.000
22.10000 444.000
22.12000 433.000
22.14000 414.000
22.16000 428.000
22.18000 440.000
22.20000 400.000
22.22000 420.000
22.24000 411.000
22.26000 441.000
22.28000 399.000
22.30000 439.000
22.32000 417.000
22.34000 454.000
22.36000 438.000
22.38000 408.000
22.40000 420.000
22.42000 417.000
22.44000 382.000
22.46000 404.000
22.48000 433.000
22.50000 434.000
22.52000 430.000
22.54000 429.000
22.56000 430.000
22.58000 449.000
22.60000 426.000
22.62000 421.000
22.64000 403.000
22.66000 423.000
22.68000 421.000
22.70000 403.000
22.72000 407.000
22.74000 432.000
22.76000 451.000
22.78000 405.000
22.80000 421.000
22.82000 412.000
22.84000 404.000
22.86000 411.000
22.88000 403.000
22.90000 410.000
22.92000 438.000
22.94000 414.000
22.96000 449.000
22.98000 419.000
23.00000 425.000
23.02000 377.000
23.04000 414.000
23.06000 414.000
23.08000 419.000
23.10000 417.000
23.12000 433.000
23.14000 412.000
23.16000 377.000
23.18000 384.000
23.20000 403.000
23.22000 379.000
23.24000 395.000
23.26000 446.000
23.28000 365.000
23.30000 419.000
23.32000 399.000
23.34000 400.000
23.36000 385.000
23.38000 404.000
23.40000 423.000
23.42000 408.000
23.44000 392.000
23.46000 386.000
23.48000 402.000
23.50000 397.000
23.52000 393.000
23.54000 404.000
23.56000 389.000
23.58000 376.000
23.60000 369.000
23.62000 390.000
23.64000 391.000
23.66000 364.000
23.68000 391.000
23.70000 392.000
23.72000 408.000
23.74000 392.000
23.76000 390.000
23.78000 418.000
23.80000 396.000
23.82000 413.000
23.84000 400.000
23.86000 390.000
23.88000 362.000
23.90000 371.000
23.92000 396.000
23.94000 406.000
23.96000 389.000
23.98000 388.000
24.00000 385.000
24.02000 384.000
24.04000 412.000
24.06000 414.000
24.08000 390.000
24.10000 376.000
24.12000 379.000
24.14000 374.000
24.16000 341.000
24.18000 367.000
24.20000 385.000
24.22000 390.000
24.24000 400.000
24.26000 415.000
24.28000 392.000
24.30000 404.000
24.32000 405.000
24.34000 403.000
24.36000 397.000
24.38000 406.000
24.40000 385.000
24.42000 393.000
24.44000 372.000
24.46000 423.000
24.48000 374.000
24.50000 381.000
24.52000 370.000
24.54000 361.000
24.56000 368.000
24.58000 394.000
24.60000 413.000
24.62000 395.000
24.64000 388.000
24.66000 372.000
24.68000 401.000
24.70000 380.000
24.72000 403.000
24.74000 376.000
24.76000 437.000
24.78000 421.000
24.80000 375.000
24.82000 407.000
24.84000 380.000
24.86000 376.000
24.88000 368.000
24.90000 415.000
24.92000 395.000
24.94000 379.000
24.96000 345.000
24.98000 406.000
25.00000 410.000
25.02000 405.000
25.04000 410.000
25.06000 412.000
25.08000 386.000
25.10000 396.000
25.12000 382.000
25.14000 402.000
25.16000 397.000
25.18000 400.000
25.20000 381.000
25.22000 377.000
25.24000 380.000
25.26000 397.000
25.28000 423.000
25.30000 403.000
25.32000 368.000
25.34000 377.000
25.36000 431.000
25.38000 362.000
25.40000 387.000
25.42000 402.000
25.44000 382.000
25.46000 405.000
25.48000 407.000
25.50000 400.000
25.52000 386.000
25.54000 383.000
25.56000 380.000
25.58000 383.000
25.60000 400.000
25.62000 428.000
25.64000 462.000
25.66000 444.000
25.68000 453.000
25.70000 449.000
25.72000 446.000
25.74000 425.000
25.76000 376.000
25.78000 379.000
25.80000 357.000
25.82000 359.000
25.84000 374.000
25.86000 395.000
25.88000 376.000
25.90000 376.000
25.92000 367.000
25.94000 366.000
25.96000 381.000
25.98000 385.000
26.00000 379.000
26.02000 398.000
26.04000 408.000
26.06000 382.000
26.08000 365.000
26.10000 376.000
26.12000 372.000
26.14000 362.000
26.16000 347.000
26.18000 366.000
26.20000 388.000
26.22000 366.000
26.24000 391.000
26.26000 409.000
26.28000 394.000
26.30000 380.000
26.32000 382.000
26.34000 372.000
26.36000 387.000
26.38000 420.000
26.40000 358.000
26.42000 373.000
26.44000 377.000
26.46000 408.000
26.48000 395.000
26.50000 381.000
26.52000 403.000
26.54000 382.000
26.56000 384.000
26.58000 405.000
26.60000 372.000
26.62000 390.000
26.64000 376.000
26.66000 396.000
26.68000 383.000
26.70000 404.000
26.72000 382.000
26.74000 391.000
26.76000 383.000
26.78000 354.000
26.80000 379.000
26.82000 374.000
26.84000 405.000
26.86000 418.000
26.88000 377.000
26.90000 423.000
26.92000 390.000
26.94000 400.000
26.96000 399.000
26.98000 378.000
27.00000 396.000
27.02000 405.000
27.04000 432.000
27.06000 390.000
27.08000 404.000
27.10000 395.000
27.12000 368.000
27.14000 379.000
27.16000 408.000
27.18000 388.000
27.20000 400.000
27.22000 382.000
27.24000 392.000
27.26000 374.000
27.28000 423.000
27.30000 406.000
27.32000 392.000
27.34000 388.000
27.36000 383.000
27.38000 425.000
27.40000 448.000
27.42000 430.000
27.44000 474.000
27.46000 459.000
27.48000 478.000
27.50000 449.000
27.52000 430.000
27.54000 480.000
27.56000 485.000
27.58000 506.000
27.60000 528.000
27.62000 601.000
27.64000 663.000
27.66000 721.000
27.68000 863.000
27.70000 1011.000
27.72000 1363.000
27.74000 1752.000
27.76000 2231.000
27.78000 2951.000
27.80000 3996.000
27.82000 5369.000
27.84000 6598.000
27.86000 6539.000
27.88000 5232.000
27.90000 4085.000
27.92000 3638.000
27.94000 2716.000
27.96000 1533.000
27.98000 872.000
28.00000 634.000
28.02000 547.000
28.04000 513.000
28.06000 483.000
28.08000 505.000
28.10000 473.000
28.12000 489.000
28.14000 502.000
28.16000 465.000
28.18000 441.000
28.20000 436.000
28.22000 469.000
28.24000 467.000
28.26000 490.000
28.28000 421.000
28.30000 436.000
28.32000 397.000
28.34000 423.000
28.36000 416.000
28.38000 432.000
28.40000 395.000
28.42000 432.000
28.44000 461.000
28.46000 482.000
28.48000 528.000
28.50000 536.000
28.52000 581.000
28.54000 596.000
28.56000 665.000
28.58000 706.000
28.60000 724.000
28.62000 727.000
28.64000 644.000
28.66000 631.000
28.68000 561.000
28.70000 528.000
28.72000 502.000
28.74000 496.000
28.76000 435.000
28.78000 416.000
28.80000 409.000
28.82000 418.000
28.84000 390.000
28.86000 421.000
28.88000 404.000
28.90000 417.000
28.92000 419.000
28.94000 405.000
28.96000 413.000
28.98000 451.000
29.00000 390.000
29.02000 386.000
29.04000 377.000
29.06000 416.000
29.08000 415.000
29.10000 401.000
29.12000 438.000
29.14000 417.000
29.16000 438.000
29.18000 399.000
29.20000 459.000
29.22000 422.000
29.24000 414.000
29.26000 442.000
29.28000 454.000
29.30000 473.000
29.32000 465.000
29.34000 467.000
29.36000 450.000
29.38000 494.000
29.40000 475.000
29.42000 519.000
29.44000 475.000
29.46000 482.000
29.48000 478.000
29.50000 522.000
29.52000 546.000
29.54000 553.000
29.56000 591.000
29.58000 598.000
29.60000 670.000
29.62000 806.000
29.64000 886.000
29.66000 1181.000
29.68000 1543.000
29.70000 2087.000
29.72000 2855.000
29.74000 3996.000
29.76000 5539.000
29.78000 7485.000
29.80000 8788.000
29.82000 8650.000
29.84000 6769.000
29.86000 5303.000
29.88000 4779.000
29.90000 3785.000
29.92000 2314.000
29.94000 1236.000
29.96000 851.000
29.98000 625.000
30.00000 613.000
30.02000 567.000
30.04000 574.000
30.06000 548.000
30.08000 547.000
30.10000 476.000
30.12000 497.000
30.14000 518.000
30.16000 499.000
30.18000 441.000
30.20000 488.000
30.22000 457.000
30.24000 440.000
30.26000 408.000
30.28000 397.000
30.30000 405.000
30.32000 373.000
30.34000 375.000
30.36000 383.000
30.38000 389.000
30.40000 377.000
30.42000 378.000
30.44000 367.000
30.46000 372.000
30.48000 391.000
30.50000 381.000
30.52000 394.000
30.54000 350.000
30.56000 372.000
30.58000 391.000
30.60000 390.000
30.62000 386.000
30.64000 389.000
30.66000 400.000
30.68000 356.000
30.70000 356.000
30.72000 383.000
30.74000 384.000
30.76000 368.000
30.78000 326.000
30.80000 396.000
30.82000 340.000
30.84000 379.000
30.86000 355.000
30.88000 366.000
30.90000 357.000
30.92000 372.000
30.94000 349.000
30.96000 343.000
30.98000 365.000
31.00000 337.000
31.02000 352.000
31.04000 356.000
31.06000 363.000
31.08000 345.000
31.10000 379.000
31.12000 359.000
31.14000 352.000
31.16000 349.000
31.18000 378.000
31.20000 343.000
31.22000 370.000
31.24000 340.000
31.26000 326.000
31.28000 370.000
31.30000 379.000
31.32000 385.000
31.34000 383.000
31.36000 374.000
31.38000 376.000
31.40000 349.000
31.42000 362.000
31.44000 366.000
31.46000 385.000
31.48000 374.000
31.50000 367.000
31.52000 353.000
31.54000 386.000
31.56000 359.000
31.58000 340.000
31.60000 348.000
31.62000 339.000
31.64000 342.000
31.66000 341.000
31.68000 323.000
31.70000 341.000
31.72000 358.000
31.74000 339.000
31.76000 354.000
31.78000 348.000
31.80000 354.000
31.82000 335.000
31.84000 324.000
31.86000 336.000
31.88000 355.000
31.90000 333.000
31.92000 354.000
31.94000 382.000
31.96000 365.000
31.98000 358.000
32.00000 332.000
32.02000 345.000
32.04000 360.000
32.06000 346.000
32.08000 379.000
32.10000 361.000
32.12000 371.000
32.14000 351.000
32.16000 353.000
32.18000 376.000
32.20000 386.000
32.22000 433.000
32.24000 410.000
32.26000 413.000
32.28000 447.000
32.30000 467.000
32.32000 462.000
32.34000 449.000
32.36000 483.000
32.38000 443.000
32.40000 462.000
32.42000 465.000
32.44000 472.000
32.46000 476.000
32.48000 470.000
32.50000 421.000
32.52000 448.000
32.54000 472.000
32.56000 462.000
32.58000 451.000
32.60000 437.000
32.62000 435.000
32.64000 473.000
32.66000 477.000
32.68000 479.000
32.70000 481.000
32.72000 480.000
32.74000 516.000
32.76000 486.000
32.78000 536.000
32.80000 483.000
32.82000 519.000
32.84000 530.000
32.86000 577.000
32.88000 559.000
32.90000 581.000
32.92000 633.000
32.94000 610.000
32.96000 705.000
32.98000 690.000
33.00000 717.000
33.02000 753.000
33.04000 806.000
33.06000 888.000
33.08000 848.000
33.10000 935.000
33.12000 1008.000
33.14000 1097.000
33.16000 1217.000
33.18000 1326.000
33.20000 1508.000
33.22000 1808.000
33.24000 2209.000
33.26000 2947.000
33.28000 4311.000
33.30000 6453.000
33.32000 9596.000
33.34000 14369.000
33.36000 20393.000
33.38000 28784.000
33.40000 35624.000
33.42000 35674.000
33.44000 27908.000
33.46000 21275.000
33.48000 19163.000
33.50000 17548.000
33.52000 12935.000
33.54000 7029.000
33.56000 3361.000
33.58000 2005.000
33.60000 1508.000
33.62000 1196.000
33.64000 1053.000
33.66000 974.000
33.68000 917.000
33.70000 904.000
33.72000 824.000
33.74000 812.000
33.76000 757.000
33.78000 723.000
33.80000 695.000
33.82000 694.000
33.84000 645.000
33.86000 605.000
33.88000 538.000
33.90000 515.000
33.92000 511.000
33.94000 511.000
33.96000 509.000
33.98000 456.000
34.00000 462.000
34.02000 463.000
34.04000 488.000
34.06000 470.000
34.08000 433.000
34.10000 479.000
34.12000 445.000
34.14000 474.000
34.16000 424.000
34.18000 424.000
34.20000 413.000
34.22000 422.000
34.24000 430.000
34.26000 393.000
34.28000 391.000
34.30000 415.000
34.32000 397.000
34.34000 394.000
34.36000 392.000
34.38000 438.000
34.40000 420.000
34.42000 394.000
34.44000 348.000
34.46000 401.000
34.48000 414.000
34.50000 401.000
34.52000 392.000
34.54000 433.000
34.56000 400.000
34.58000 376.000
34.60000 394.000
34.62000 376.000
34.64000 405.000
34.66000 388.000
34.68000 384.000
34.70000 410.000
34.72000 374.000
34.74000 382.000
34.76000 389.000
34.78000 389.000
34.80000 388.000
34.82000 380.000
34.84000 367.000
34.86000 394.000
34.88000 397.000
34.90000 388.000
34.92000 372.000
34.94000 379.000
34.96000 361.000
34.98000 333.000
35.00000 350.000
35.02000 397.000
35.04000 398.000
35.06000 386.000
35.08000 398.000
35.10000 401.000
35.12000 426.000
35.14000 411.000
35.16000 432.000
35.18000 430.000
35.20000 464.000
35.22000 473.000
35.24000 475.000
35.26000 426.000
35.28000 410.000
35.30000 429.000
35.32000 407.000
35.34000 406.000
35.36000 361.000
35.38000 356.000
35.40000 347.000
35.42000 378.000
35.44000 369.000
35.46000 397.000
35.48000 395.000
35.50000 363.000
35.52000 386.000
35.54000 411.000
35.56000 399.000
35.58000 381.000
35.60000 390.000
35.62000 371.000
35.64000 386.000
35.66000 394.000
35.68000 368.000
35.70000 371.000
35.72000 405.000
35.74000 420.000
35.76000 363.000
35.78000 334.000
35.80000 336.000
35.82000 357.000
35.84000 355.000
35.86000 349.000
35.88000 362.000
35.90000 373.000
35.92000 358.000
35.94000 376.000
35.96000 385.000
35.98000 392.000
36.00000 377.000
36.02000 383.000
36.04000 380.000
36.06000 383.000
36.08000 380.000
36.10000 393.000
36.12000 433.000
36.14000 391.000
36.16000 423.000
36.18000 395.000
36.20000 408.000
36.22000 399.000
36.24000 417.000
36.26000 425.000
36.28000 452.000
36.30000 449.000
36.32000 425.000
36.34000 421.000
36.36000 410.000
36.38000 442.000
36.40000 438.000
36.42000 424.000
36.44000 432.000
36.46000 496.000
36.48000 528.000
36.50000 565.000
36.52000 608.000
36.54000 688.000
36.56000 892.000
36.58000 1241.000
36.60000 1732.000
36.62000 2545.000
36.64000 3826.000
36.66000 5306.000
36.68000 6842.000
36.70000 7477.000
36.72000 6320.000
36.74000 4596.000
36.76000 3938.000
36.78000 3973.000
36.80000 3619.000
36.82000 2574.000
36.84000 1404.000
36.86000 884.000
36.88000 651.000
36.90000 574.000
36.92000 501.000
36.94000 461.000
36.96000 444.000
36.98000 459.000
37.00000 479.000
37.02000 456.000
37.04000 446.000
37.06000 439.000
37.08000 418.000
37.10000 399.000
37.12000 402.000
37.14000 414.000
37.16000 410.000
37.18000 395.000
37.20000 371.000
37.22000 354.000
37.24000 372.000
37.26000 363.000
37.28000 341.000
37.30000 342.000
37.32000 376.000
37.34000 367.000
37.36000 332.000
37.38000 329.000
37.40000 332.000
37.42000 348.000
37.44000 338.000
37.46000 362.000
37.48000 356.000
37.50000 351.000
37.52000 382.000
37.54000 345.000
37.56000 336.000
37.58000 357.000
37.60000 341.000
37.62000 324.000
37.64000 349.000
37.66000 364.000
37.68000 320.000
37.70000 323.000
37.72000 334.000
37.74000 362.000
37.76000 370.000
37.78000 374.000
37.80000 409.000
37.82000 390.000
37.84000 377.000
37.86000 393.000
37.88000 390.000
37.90000 408.000
37.92000 381.000
37.94000 400.000
37.96000 377.000
37.98000 367.000
38.00000 379.000
38.02000 374.000
38.04000 400.000
38.06000 371.000
38.08000 436.000
38.10000 429.000
38.12000 488.000
38.14000 633.000
38.16000 806.000
38.18000 1058.000
38.20000 1441.000
38.22000 1993.000
38.24000 2440.000
38.26000 2282.000
38.28000 1745.000
38.30000 1324.000
38.32000 1252.000
38.34000 1423.000
38.36000 1271.000
38.38000 905.000
38.40000 589.000
38.42000 446.000
38.44000 399.000
38.46000 370.000
38.48000 407.000
38.50000 372.000
38.52000 367.000
38.54000 354.000
38.56000 361.000
38.58000 335.000
38.60000 338.000
38.62000 349.000
38.64000 374.000
38.66000 365.000
38.68000 341.000
38.70000 339.000
38.72000 351.000
38.74000 306.000
38.76000 349.000
38.78000 318.000
38.80000 344.000
38.82000 338.000
38.84000 342.000
38.86000 314.000
38.88000 342.000
38.90000 334.000
38.92000 324.000
38.94000 327.000
38.96000 321.000
38.98000 335.000
39.00000 319.000
39.02000 365.000
39.04000 329.000
39.06000 318.000
39.08000 331.000
39.10000 323.000
39.12000 333.000
39.14000 299.000
39.16000 323.000
39.18000 318.000
39.20000 308.000
39.22000 321.000
39.24000 302.000
39.26000 299.000
39.28000 321.000
39.30000 340.000
39.32000 307.000
39.34000 330.000
39.36000 325.000
39.38000 331.000
39.40000 331.000
39.42000 315.000
39.44000 302.000
39.46000 334.000
39.48000 321.000
39.50000 313.000
39.52000 313.000
39.54000 303.000
39.56000 323.000
39.58000 319.000
39.60000 329.000
39.62000 303.000
39.64000 295.000
39.66000 317.000
39.68000 275.000
39.70000 330.000
39.72000 311.000
39.74000 331.000
39.76000 330.000
39.78000 334.000
39.80000 338.000
39.82000 346.000
39.84000 348.000
39.86000 356.000
39.88000 306.000
39.90000 300.000
39.92000 331.000
39.94000 300.000
39.96000 337.000
39.98000 284.000
40.00000 352.000
40.02000 379.000
40.04000 331.000
40.06000 331.000
40.08000 333.000
40.10000 347.000
40.12000 329.000
40.14000 326.000
40.16000 304.000
40.18000 329.000
40.20000 299.000
40.22000 309.000
40.24000 328.000
40.26000 328.000
40.28000 320.000
40.30000 312.000
40.32000 338.000
40.34000 356.000
40.36000 370.000
40.38000 323.000
40.40000 326.000
40.42000 346.000
40.44000 302.000
40.46000 314.000
40.48000 323.000
40.50000 335.000
40.52000 332.000
40.54000 324.000
40.56000 341.000
40.58000 323.000
40.60000 343.000
40.62000 351.000
40.64000 340.000
40.66000 339.000
40.68000 342.000
40.70000 374.000
40.72000 375.000
40.74000 396.000
40.76000 391.000
40.78000 377.000
40.80000 395.000
40.82000 416.000
40.84000 398.000
40.86000 418.000
40.88000 405.000
40.90000 418.000
40.92000 429.000
40.94000 457.000
40.96000 452.000
40.98000 524.000
41.00000 549.000
41.02000 558.000
41.04000 630.000
41.06000 763.000
41.08000 1122.000
41.10000 1643.000
41.12000 2518.000
41.14000 3994.000
41.16000 6044.000
41.18000 8128.000
41.20000 8940.000
41.22000 7450.000
41.24000 5273.000
41.26000 4065.000
41.28000 4353.000
41.30000 4685.000
41.32000 4233.000
41.34000 2765.000
41.36000 1423.000
41.38000 849.000
41.40000 639.000
41.42000 591.000
41.44000 549.000
41.46000 502.000
41.48000 463.000
41.50000 461.000
41.52000 438.000
41.54000 450.000
41.56000 408.000
41.58000 400.000
41.60000 382.000
41.62000 382.000
41.64000 411.000
41.66000 379.000
41.68000 339.000
41.70000 334.000
41.72000 338.000
41.74000 355.000
41.76000 353.000
41.78000 343.000
41.80000 329.000
41.82000 307.000
41.84000 349.000
41.86000 355.000
41.88000 318.000
41.90000 312.000
41.92000 343.000
41.94000 345.000
41.96000 325.000
41.98000 324.000
42.00000 307.000
42.02000 305.000
42.04000 318.000
42.06000 319.000
42.08000 349.000
42.10000 311.000
42.12000 317.000
42.14000 354.000
42.16000 341.000
42.18000 337.000
42.20000 310.000
42.22000 309.000
42.24000 317.000
42.26000 314.000
42.28000 345.000
42.30000 357.000
42.32000 335.000
42.34000 348.000
42.36000 365.000
42.38000 379.000
42.40000 368.000
42.42000 397.000
42.44000 379.000
42.46000 418.000
42.48000 463.000
42.50000 501.000
42.52000 706.000
42.54000 953.000
42.56000 1359.000
42.58000 1866.000
42.60000 2329.000
42.62000 2325.000
42.64000 1787.000
42.66000 1224.000
42.68000 1057.000
42.70000 1219.000
42.72000 1447.000
42.74000 1193.000
42.76000 820.000
42.78000 545.000
42.80000 426.000
42.82000 394.000
42.84000 351.000
42.86000 361.000
42.88000 340.000
42.90000 352.000
42.92000 345.000
42.94000 320.000
42.96000 342.000
42.98000 333.000
43.00000 326.000
43.02000 307.000
43.04000 337.000
43.06000 311.000
43.08000 320.000
43.10000 340.000
43.12000 333.000
43.14000 306.000
43.16000 304.000
43.18000 298.000
43.20000 314.000
43.22000 324.000
43.24000 306.000
43.26000 299.000
43.28000 299.000
43.30000 299.000
43.32000 306.000
43.34000 321.000
43.36000 349.000
43.38000 361.000
43.40000 413.000
43.42000 395.000
43.44000 394.000
43.46000 373.000
43.48000 333.000
43.50000 362.000
43.52000 356.000
43.54000 355.000
43.56000 340.000
43.58000 322.000
43.60000 293.000
43.62000 293.000
43.64000 304.000
43.66000 309.000
43.68000 318.000
43.70000 303.000
43.72000 306.000
43.74000 312.000
43.76000 298.000
43.78000 274.000
43.80000 318.000
43.82000 288.000
43.84000 306.000
43.86000 285.000
43.88000 281.000
43.90000 281.000
43.92000 274.000
43.94000 304.000
43.96000 285.000
43.98000 300.000
44.00000 293.000
44.02000 299.000
44.04000 290.000
44.06000 293.000
44.08000 326.000
44.10000 295.000
44.12000 283.000
44.14000 300.000
44.16000 294.000
44.18000 291.000
44.20000 298.000
44.22000 264.000
44.24000 284.000
44.26000 292.000
44.28000 287.000
44.30000 310.000
44.32000 273.000
44.34000 282.000
44.36000 267.000
44.38000 283.000
44.40000 313.000
44.42000 296.000
44.44000 279.000
44.46000 295.000
44.48000 276.000
44.50000 278.000
44.52000 306.000
44.54000 278.000
44.56000 304.000
44.58000 310.000
44.60000 272.000
44.62000 274.000
44.64000 282.000
44.66000 300.000
44.68000 286.000
44.70000 257.000
44.72000 281.000
44.74000 270.000
44.76000 318.000
44.78000 304.000
44.80000 299.000
44.82000 305.000
44.84000 302.000
44.86000 281.000
44.88000 266.000
44.90000 285.000
44.92000 306.000
44.94000 297.000
44.96000 328.000
44.98000 281.000
45.00000 277.000
45.02000 274.000
45.04000 277.000
45.06000 311.000
45.08000 314.000
45.10000 325.000
45.12000 311.000
45.14000 293.000
45.16000 319.000
45.18000 302.000
45.20000 315.000
45.22000 302.000
45.24000 298.000
45.26000 304.000
45.28000 306.000
45.30000 319.000
45.32000 316.000
45.34000 302.000
45.36000 292.000
45.38000 295.000
45.40000 310.000
45.42000 295.000
45.44000 325.000
45.46000 281.000
45.48000 310.000
45.50000 308.000
45.52000 339.000
45.54000 306.000
45.56000 319.000
45.58000 304.000
45.60000 316.000
45.62000 303.000
45.64000 312.000
45.66000 314.000
45.68000 279.000
45.70000 305.000
45.72000 287.000
45.74000 307.000
45.76000 324.000
45.78000 314.000
45.80000 310.000
45.82000 335.000
45.84000 309.000
45.86000 313.000
45.88000 283.000
45.90000 352.000
45.92000 308.000
45.94000 304.000
45.96000 320.000
45.98000 329.000
46.00000 332.000
46.02000 339.000
46.04000 317.000
46.06000 320.000
46.08000 349.000
46.10000 352.000
46.12000 374.000
46.14000 345.000
46.16000 357.000
46.18000 366.000
46.20000 386.000
46.22000 398.000
46.24000 361.000
46.26000 380.000
46.28000 381.000
46.30000 411.000
46.32000 437.000
46.34000 483.000
46.36000 463.000
46.38000 485.000
46.40000 553.000
46.42000 522.000
46.44000 568.000
46.46000 590.000
46.48000 645.000
46.50000 818.000
46.52000 1050.000
46.54000 1680.000
46.56000 2705.000
46.58000 4339.000
46.60000 6708.000
46.62000 9173.000
46.64000 10093.000
46.66000 8087.000
46.68000 5023.000
46.70000 3561.000
46.72000 3772.000
46.74000 4833.000
46.76000 5246.000
46.78000 4366.000
46.80000 2612.000
46.82000 1390.000
46.84000 883.000
46.86000 694.000
46.88000 598.000
46.90000 527.000
46.92000 492.000
46.94000 484.000
46.96000 459.000
46.98000 444.000
47.00000 403.000
47.02000 428.000
47.04000 426.000
47.06000 385.000
47.08000 393.000
47.10000 374.000
47.12000 364.000
47.14000 331.000
47.16000 308.000
47.18000 318.000
47.20000 360.000
47.22000 346.000
47.24000 334.000
47.26000 329.000
47.28000 341.000
47.30000 347.000
47.32000 337.000
47.34000 384.000
47.36000 373.000
47.38000 372.000
47.40000 399.000
47.42000 424.000
47.44000 438.000
47.46000 425.000
47.48000 445.000
47.50000 464.000
47.52000 445.000
47.54000 464.000
47.56000 468.000
47.58000 463.000
47.60000 446.000
47.62000 436.000
47.64000 404.000
47.66000 400.000
47.68000 370.000
47.70000 347.000
47.72000 357.000
47.74000 334.000
47.76000 326.000
47.78000 309.000
47.80000 287.000
47.82000 344.000
47.84000 327.000
47.86000 349.000
47.88000 358.000
47.90000 373.000
47.92000 431.000
47.94000 409.000
47.96000 364.000
47.98000 296.000
48.00000 339.000
48.02000 325.000
48.04000 350.000
48.06000 360.000
48.08000 371.000
48.10000 302.000
48.12000 315.000
48.14000 276.000
48.16000 294.000
48.18000 309.000
48.20000 267.000
48.22000 296.000
48.24000 293.000
48.26000 270.000
48.28000 281.000
48.30000 299.000
48.32000 317.000
48.34000 272.000
48.36000 300.000
48.38000 278.000
48.40000 303.000
48.42000 301.000
48.44000 312.000
48.46000 305.000
48.48000 314.000
48.50000 291.000
48.52000 312.000
48.54000 289.000
48.56000 275.000
48.58000 294.000
48.60000 288.000
48.62000 308.000
48.64000 272.000
48.66000 280.000
48.68000 245.000
48.70000 283.000
48.72000 285.000
48.74000 274.000
48.76000 302.000
48.78000 281.000
48.80000 298.000
48.82000 288.000
48.84000 298.000
48.86000 305.000
48.88000 301.000
48.90000 280.000
48.92000 305.000
48.94000 298.000
48.96000 313.000
48.98000 311.000
49.00000 294.000
49.02000 319.000
49.04000 280.000
49.06000 317.000
49.08000 289.000
49.10000 329.000
49.12000 307.000
49.14000 312.000
49.16000 330.000
49.18000 330.000
49.20000 310.000
49.22000 318.000
49.24000 294.000
49.26000 297.000
49.28000 315.000
49.30000 344.000
49.32000 302.000
49.34000 324.000
49.36000 311.000
49.38000 281.000
49.40000 297.000
49.42000 264.000
49.44000 294.000
49.46000 313.000
49.48000 307.000
49.50000 320.000
49.52000 305.000
49.54000 311.000
49.56000 289.000
49.58000 273.000
49.60000 277.000
49.62000 266.000
49.64000 290.000
49.66000 287.000
49.68000 322.000
49.70000 304.000
49.72000 284.000
49.74000 275.000
49.76000 298.000
49.78000 256.000
49.80000 291.000
49.82000 246.000
49.84000 291.000
49.86000 291.000
49.88000 297.000
49.90000 316.000
49.92000 291.000
49.94000 271.000
49.96000 293.000
49.98000 284.000
50.00000 284.000
50.02000 313.000
50.04000 271.000
50.06000 275.000
50.08000 287.000
50.10000 267.000
50.12000 298.000
50.14000 298.000
50.16000 305.000
50.18000 301.000
50.20000 288.000
50.22000 313.000
50.24000 274.000
50.26000 276.000
50.28000 283.000
50.30000 264.000
50.32000 271.000
50.34000 273.000
50.36000 272.000
50.38000 269.000
50.40000 315.000
50.42000 318.000
50.44000 264.000
50.46000 261.000
50.48000 278.000
50.50000 285.000
50.52000 283.000
50.54000 304.000
50.56000 274.000
50.58000 294.000
50.60000 289.000
50.62000 293.000
50.64000 296.000
50.66000 285.000
50.68000 285.000
50.70000 300.000
50.72000 306.000
50.74000 265.000
50.76000 296.000
50.78000 254.000
50.80000 303.000
50.82000 255.000
50.84000 268.000
50.86000 275.000
50.88000 304.000
50.90000 299.000
50.92000 300.000
50.94000 293.000
50.96000 268.000
50.98000 279.000
51.00000 277.000
51.02000 309.000
51.04000 301.000
51.06000 265.000
51.08000 267.000
51.10000 297.000
51.12000 313.000
51.14000 315.000
51.16000 293.000
51.18000 315.000
51.20000 307.000
51.22000 317.000
51.24000 304.000
51.26000 291.000
51.28000 298.000
51.30000 300.000
51.32000 317.000
51.34000 328.000
51.36000 318.000
51.38000 295.000
51.40000 297.000
51.42000 293.000
51.44000 317.000
51.46000 325.000
51.48000 375.000
51.50000 350.000
51.52000 374.000
51.54000 436.000
51.56000 514.000
51.58000 739.000
51.60000 966.000
51.62000 1121.000
51.64000 1009.000
51.66000 737.000
51.68000 573.000
51.70000 494.000
51.72000 546.000
51.74000 652.000
51.76000 714.000
51.78000 653.000
51.80000 517.000
51.82000 409.000
51.84000 355.000
51.86000 326.000
51.88000 332.000
51.90000 298.000
51.92000 313.000
51.94000 279.000
51.96000 319.000
51.98000 313.000
52.00000 309.000
52.02000 309.000
52.04000 276.000
52.06000 326.000
52.08000 283.000
52.10000 315.000
52.12000 324.000
52.14000 314.000
52.16000 305.000
52.18000 333.000
52.20000 319.000
52.22000 331.000
52.24000 312.000
52.26000 332.000
52.28000 365.000
52.30000 339.000
52.32000 333.000
52.34000 328.000
52.36000 349.000
52.38000 350.000
52.40000 341.000
52.42000 373.000
52.44000 358.000
52.46000 360.000
52.48000 388.000
52.50000 394.000
52.52000 459.000
52.54000 456.000
52.56000 458.000
52.58000 487.000
52.60000 514.000
52.62000 517.000
52.64000 527.000
52.66000 513.000
52.68000 646.000
52.70000 769.000
52.72000 1127.000
52.74000 1796.000
52.76000 3021.000
52.78000 4774.000
52.80000 6637.000
52.82000 7122.000
52.84000 5734.000
52.86000 3466.000
52.88000 2290.000
52.90000 2100.000
52.92000 2800.000
52.94000 3530.000
52.96000 3839.000
52.98000 3130.000
53.00000 1954.000
53.02000 1183.000
53.04000 704.000
53.06000 587.000
53.08000 501.000
53.10000 488.000
53.12000 457.000
53.14000 447.000
53.16000 458.000
53.18000 387.000
53.20000 385.000
53.22000 371.000
53.24000 380.000
53.26000 369.000
53.28000 375.000
53.30000 337.000
53.32000 345.000
53.34000 360.000
53.36000 335.000
53.38000 343.000
53.40000 332.000
53.42000 321.000
53.44000 316.000
53.46000 327.000
53.48000 315.000
53.50000 359.000
53.52000 357.000
53.54000 320.000
53.56000 338.000
53.58000 323.000
53.60000 342.000
53.62000 313.000
53.64000 301.000
53.66000 325.000
53.68000 340.000
53.70000 327.000
53.72000 298.000
53.74000 323.000
53.76000 343.000
53.78000 310.000
53.80000 334.000
53.82000 298.000
53.84000 321.000
53.86000 310.000
53.88000 319.000
53.90000 322.000
53.92000 311.000
53.94000 332.000
53.96000 372.000
53.98000 362.000
54.00000 377.000
54.02000 354.000
54.04000 351.000
54.06000 337.000
54.08000 336.000
54.10000 337.000
54.12000 309.000
54.14000 348.000
54.16000 340.000
54.18000 319.000
54.20000 345.000
54.22000 326.000
54.24000 353.000
54.26000 303.000
54.28000 311.000
54.30000 326.000
54.32000 321.000
54.34000 312.000
54.36000 304.000
54.38000 335.000
54.40000 321.000
54.42000 334.000
54.44000 328.000
54.46000 350.000
54.48000 306.000
54.50000 315.000
54.52000 311.000
54.54000 337.000
54.56000 355.000
54.58000 351.000
54.60000 366.000
54.62000 352.000
54.64000 364.000
54.66000 391.000
54.68000 413.000
54.70000 392.000
54.72000 433.000
54.74000 439.000
54.76000 436.000
54.78000 433.000
54.80000 520.000
54.82000 507.000
54.84000 494.000
54.86000 541.000
54.88000 572.000
54.90000 565.000
54.92000 623.000
54.94000 614.000
54.96000 636.000
54.98000 684.000
55.00000 796.000
55.02000 1012.000
55.04000 1509.000
55.06000 2343.000
55.08000 3807.000
55.10000 6522.000
55.12000 9857.000
55.14000 12757.000
55.16000 12268.000
55.18000 8099.000
55.20000 4493.000
55.22000 3254.000
55.24000 3521.000
55.26000 4784.000
55.28000 6250.000
55.30000 6836.000
55.32000 5316.000
55.34000 3155.000
55.36000 1698.000
55.38000 1104.000
55.40000 827.000
55.42000 713.000
55.44000 609.000
55.46000 586.000
55.48000 549.000
55.50000 532.000
55.52000 523.000
55.54000 518.000
55.56000 479.000
55.58000 472.000
55.60000 436.000
55.62000 425.000
55.64000 404.000
55.66000 413.000
55.68000 450.000
55.70000 411.000
55.72000 345.000
55.74000 388.000
55.76000 421.000
55.78000 371.000
55.80000 371.000
55.82000 341.000
55.84000 353.000
55.86000 396.000
55.88000 365.000
55.90000 398.000
55.92000 392.000
55.94000 409.000
55.96000 387.000
55.98000 352.000
56.00000 390.000
56.02000 372.000
56.04000 383.000
56.06000 437.000
56.08000 429.000
56.10000 430.000
56.12000 443.000
56.14000 425.000
56.16000 525.000
56.18000 608.000
56.20000 802.000
56.22000 1201.000
56.24000 1836.000
56.26000 2683.000
56.28000 3450.000
56.30000 3237.000
56.32000 2346.000
56.34000 1524.000
56.36000 1094.000
56.38000 1188.000
56.40000 1410.000
56.42000 1789.000
56.44000 2004.000
56.46000 1709.000
56.48000 1162.000
56.50000 761.000
56.52000 571.000
56.54000 523.000
56.56000 504.000
56.58000 425.000
56.60000 409.000
56.62000 435.000
56.64000 412.000
56.66000 370.000
56.68000 363.000
56.70000 360.000
56.72000 360.000
56.74000 351.000
56.76000 377.000
56.78000 369.000
56.80000 369.000
56.82000 367.000
56.84000 372.000
56.86000 400.000
56.88000 373.000
56.90000 371.000
56.92000 422.000
56.94000 390.000
56.96000 389.000
56.98000 422.000
57.00000 401.000
57.02000 390.000
57.04000 447.000
57.06000 423.000
57.08000 487.000
57.10000 493.000
57.12000 523.000
57.14000 498.000
57.16000 547.000
57.18000 565.000
57.20000 574.000
57.22000 594.000
57.24000 592.000
57.26000 685.000
57.28000 886.000
57.30000 1133.000
57.32000 1581.000
57.34000 2661.000
57.36000 4813.000
57.38000 7956.000
57.40000 10871.000
57.42000 11314.000
57.44000 8595.000
57.46000 5032.000
57.48000 2985.000
57.50000 2664.000
57.52000 3474.000
57.54000 4730.000
57.56000 5882.000
57.58000 5876.000
57.60000 4203.000
57.62000 2344.000
57.64000 1385.000
57.66000 997.000
57.68000 758.000
57.70000 731.000
57.72000 644.000
57.74000 564.000
57.76000 523.000
57.78000 498.000
57.80000 469.000
57.82000 436.000
57.84000 441.000
57.86000 464.000
57.88000 451.000
57.90000 435.000
57.92000 391.000
57.94000 385.000
57.96000 345.000
57.98000 367.000
58.00000 343.000
58.02000 339.000
58.04000 334.000
58.06000 325.000
58.08000 319.000
58.10000 315.000
58.12000 334.000
58.14000 342.000
58.16000 321.000
58.18000 335.000
58.20000 351.000
58.22000 310.000
58.24000 322.000
58.26000 306.000
58.28000 318.000
58.30000 325.000
58.32000 345.000
58.34000 318.000
58.36000 307.000
58.38000 323.000
58.40000 309.000
58.42000 336.000
58.44000 305.000
58.46000 317.000
58.48000 302.000
58.50000 301.000
58.52000 318.000
58.54000 321.000
58.56000 299.000
58.58000 325.000
58.60000 320.000
58.62000 324.000
58.64000 284.000
58.66000 304.000
58.68000 308.000
58.70000 304.000
58.72000 309.000
58.74000 308.000
58.76000 315.000
58.78000 283.000
58.80000 292.000
58.82000 313.000
58.84000 312.000
58.86000 308.000
58.88000 310.000
58.90000 314.000
58.92000 296.000
58.94000 295.000
58.96000 301.000
58.98000 308.000
59.00000 302.000
59.02000 307.000
59.04000 307.000
59.06000 321.000
59.08000 301.000
59.10000 320.000
59.12000 294.000
59.14000 320.000
59.16000 307.000
59.18000 316.000
59.20000 310.000
59.22000 309.000
59.24000 312.000
59.26000 300.000
59.28000 313.000
59.30000 288.000
59.32000 289.000
59.34000 320.000
59.36000 306.000
59.38000 305.000
59.40000 289.000
59.42000 282.000
59.44000 294.000
59.46000 288.000
59.48000 296.000
59.50000 320.000
59.52000 295.000
59.54000 338.000
59.56000 304.000
59.58000 305.000
59.60000 342.000
59.62000 302.000
59.64000 300.000
59.66000 273.000
59.68000 322.000
59.70000 313.000
59.72000 308.000
59.74000 285.000
59.76000 287.000
59.78000 269.000
59.80000 296.000
59.82000 305.000
59.84000 283.000
59.86000 285.000
59.88000 312.000
59.90000 309.000
59.92000 309.000
59.94000 288.000
59.96000 299.000
59.98000 279.000
60.00000 295.000
60.02000 284.000
60.04000 275.000
60.06000 262.000
60.08000 277.000
60.10000 303.000
60.12000 298.000
60.14000 310.000
60.16000 300.000
60.18000 298.000
60.20000 313.000
60.22000 311.000
60.24000 297.000
60.26000 319.000
60.28000 307.000
60.30000 285.000
60.32000 318.000
60.34000 325.000
60.36000 318.000
60.38000 317.000
60.40000 340.000
60.42000 307.000
60.44000 326.000
60.46000 305.000
60.48000 334.000
60.50000 325.000
60.52000 316.000
60.54000 314.000
60.56000 337.000
60.58000 367.000
60.60000 435.000
60.62000 510.000
60.64000 701.000
60.66000 987.000
60.68000 1411.000
60.70000 1759.000
60.72000 1776.000
60.74000 1391.000
60.76000 885.000
60.78000 671.000
60.80000 559.000
60.82000 634.000
60.84000 806.000
60.86000 998.000
60.88000 1065.000
60.90000 882.000
60.92000 658.000
60.94000 470.000
60.96000 380.000
60.98000 345.000
61.00000 330.000
61.02000 361.000
61.04000 332.000
61.06000 323.000
61.08000 300.000
61.10000 310.000
61.12000 336.000
61.14000 340.000
61.16000 332.000
61.18000 310.000
61.20000 325.000
61.22000 320.000
61.24000 306.000
61.26000 307.000
61.28000 329.000
61.30000 333.000
61.32000 358.000
61.34000 342.000
61.36000 309.000
61.38000 314.000
61.40000 333.000
61.42000 347.000
61.44000 382.000
61.46000 355.000
61.48000 355.000
61.50000 401.000
61.52000 372.000
61.54000 383.000
61.56000 391.000
61.58000 413.000
61.60000 404.000
61.62000 433.000
61.64000 475.000
61.66000 519.000
61.68000 645.000
61.70000 934.000
61.72000 1550.000
61.74000 2545.000
61.76000 3708.000
61.78000 4594.000
61.80000 4046.000
61.82000 2908.000
61.84000 1620.000
61.86000 1073.000
61.88000 1056.000
61.90000 1283.000
61.92000 1720.000
61.94000 2234.000
61.96000 2403.000
61.98000 2007.000
62.00000 1331.000
62.02000 770.000
62.04000 552.000
62.06000 444.000
62.08000 440.000
62.10000 396.000
62.12000 384.000
62.14000 366.000
62.16000 391.000
62.18000 355.000
62.20000 330.000
62.22000 334.000
62.24000 326.000
62.26000 306.000
62.28000 302.000
62.30000 291.000
62.32000 275.000
62.34000 308.000
62.36000 325.000
62.38000 316.000
62.40000 323.000
62.42000 331.000
62.44000 314.000
62.46000 314.000
62.48000 304.000
62.50000 299.000
62.52000 276.000
62.54000 272.000
62.56000 322.000
62.58000 290.000
62.60000 287.000
62.62000 265.000
62.64000 305.000
62.66000 283.000
62.68000 286.000
62.70000 277.000
62.72000 286.000
62.74000 335.000
62.76000 295.000
62.78000 337.000
62.80000 367.000
62.82000 395.000
62.84000 498.000
62.86000 465.000
62.88000 401.000
62.90000 350.000
62.92000 311.000
62.94000 305.000
62.96000 319.000
62.98000 341.000
63.00000 358.000
63.02000 356.000
63.04000 353.000
63.06000 319.000
63.08000 315.000
63.10000 293.000
63.12000 278.000
63.14000 287.000
63.16000 332.000
63.18000 295.000
63.20000 300.000
63.22000 309.000
63.24000 257.000
63.26000 259.000
63.28000 297.000
63.30000 275.000
63.32000 307.000
63.34000 253.000
63.36000 265.000
63.38000 280.000
63.40000 284.000
63.42000 280.000
63.44000 256.000
63.46000 271.000
63.48000 272.000
63.50000 287.000
63.52000 288.000
63.54000 283.000
63.56000 292.000
63.58000 298.000
63.60000 310.000
63.62000 284.000
63.64000 291.000
63.66000 274.000
63.68000 275.000
63.70000 258.000
63.72000 276.000
63.74000 288.000
63.76000 261.000
63.78000 267.000
63.80000 249.000
63.82000 288.000
63.84000 316.000
63.86000 323.000
63.88000 366.000
63.90000 364.000
63.92000 380.000
63.94000 351.000
63.96000 285.000
63.98000 272.000
64.00000 283.000
64.02000 302.000
64.04000 336.000
64.06000 343.000
64.08000 326.000
64.10000 345.000
64.12000 313.000
64.14000 271.000
64.16000 295.000
64.18000 261.000
64.20000 281.000
64.22000 320.000
64.24000 288.000
64.26000 283.000
64.28000 271.000
64.30000 278.000
64.32000 282.000
64.34000 271.000
64.36000 285.000
64.38000 264.000
64.40000 272.000
64.42000 274.000
64.44000 276.000
64.46000 261.000
64.48000 270.000
64.50000 270.000
64.52000 275.000
64.54000 283.000
64.56000 281.000
64.58000 280.000
64.60000 265.000
64.62000 279.000
64.64000 265.000
64.66000 292.000
64.68000 273.000
64.70000 292.000
64.72000 286.000
64.74000 286.000
64.76000 268.000
64.78000 274.000
64.80000 290.000
64.82000 301.000
64.84000 297.000
64.86000 305.000
64.88000 338.000
64.90000 395.000
64.92000 503.000
64.94000 553.000
64.96000 544.000
64.98000 439.000
65.00000 393.000
65.02000 323.000
65.04000 324.000
65.06000 309.000
65.08000 364.000
65.10000 374.000
65.12000 428.000
65.14000 407.000
65.16000 375.000
65.18000 338.000
65.20000 294.000
65.22000 277.000
65.24000 293.000
65.26000 280.000
65.28000 276.000
65.30000 266.000
65.32000 272.000
65.34000 283.000
65.36000 300.000
65.38000 241.000
65.40000 257.000
65.42000 271.000
65.44000 272.000
65.46000 271.000
65.48000 276.000
65.50000 295.000
65.52000 278.000
65.54000 272.000
65.56000 305.000
65.58000 302.000
65.60000 270.000
65.62000 266.000
65.64000 284.000
65.66000 273.000
65.68000 281.000
65.70000 263.000
65.72000 267.000
65.74000 301.000
65.76000 261.000
65.78000 281.000
65.80000 270.000
65.82000 283.000
65.84000 279.000
65.86000 328.000
65.88000 297.000
65.90000 340.000
65.92000 379.000
65.94000 468.000
65.96000 563.000
65.98000 671.000
66.00000 626.000
66.02000 476.000
66.04000 371.000
66.06000 310.000
66.08000 310.000
66.10000 325.000
66.12000 394.000
66.14000 392.000
66.16000 434.000
66.18000 435.000
66.20000 389.000
66.22000 336.000
66.24000 301.000
66.26000 282.000
66.28000 267.000
66.30000 264.000
66.32000 264.000
66.34000 262.000
66.36000 269.000
66.38000 277.000
66.40000 241.000
66.42000 282.000
66.44000 283.000
66.46000 268.000
66.48000 300.000
66.50000 275.000
66.52000 299.000
66.54000 330.000
66.56000 326.000
66.58000 308.000
66.60000 300.000
66.62000 291.000
66.64000 259.000
66.66000 287.000
66.68000 287.000
66.70000 287.000
66.72000 317.000
66.74000 284.000
66.76000 288.000
66.78000 260.000
66.80000 283.000
66.82000 277.000
66.84000 281.000
66.86000 282.000
66.88000 271.000
66.90000 283.000
66.92000 266.000
66.94000 298.000
66.96000 309.000
66.98000 325.000
67.00000 352.000
67.02000 339.000
67.04000 318.000
67.06000 280.000
67.08000 277.000
67.10000 282.000
67.12000 279.000
67.14000 276.000
67.16000 284.000
67.18000 285.000
67.20000 319.000
67.22000 319.000
67.24000 307.000
67.26000 307.000
67.28000 291.000
67.30000 268.000
67.32000 292.000
67.34000 293.000
67.36000 289.000
67.38000 303.000
67.40000 272.000
67.42000 237.000
67.44000 286.000
67.46000 277.000
67.48000 261.000
67.50000 252.000
67.52000 283.000
67.54000 259.000
67.56000 237.000
67.58000 239.000
67.60000 257.000
67.62000 279.000
67.64000 246.000
67.66000 279.000
67.68000 254.000
67.70000 287.000
67.72000 273.000
67.74000 286.000
67.76000 263.000
67.78000 274.000
67.80000 263.000
67.82000 263.000
67.84000 263.000
67.86000 270.000
67.88000 269.000
67.90000 271.000
67.92000 267.000
67.94000 290.000
67.96000 281.000
67.98000 255.000
68.00000 291.000
68.02000 263.000
68.04000 271.000
68.06000 261.000
68.08000 270.000
68.10000 275.000
68.12000 285.000
68.14000 285.000
68.16000 278.000
68.18000 286.000
68.20000 297.000
68.22000 342.000
68.24000 345.000
68.26000 331.000
68.28000 305.000
68.30000 294.000
68.32000 280.000
68.34000 276.000
68.36000 293.000
68.38000 255.000
68.40000 275.000
68.42000 295.000
68.44000 298.000
68.46000 278.000
68.48000 265.000
68.50000 270.000
68.52000 267.000
68.54000 240.000
68.56000 273.000
68.58000 268.000
68.60000 257.000
68.62000 252.000
68.64000 248.000
68.66000 280.000
68.68000 303.000
68.70000 281.000
68.72000 280.000
68.74000 257.000
68.76000 273.000
68.78000 270.000
68.80000 264.000
68.82000 271.000
68.84000 286.000
68.86000 246.000
68.88000 268.000
68.90000 273.000
68.92000 281.000
68.94000 298.000
68.96000 321.000
68.98000 363.000
69.00000 392.000
69.02000 493.000
69.04000 522.000
69.06000 464.000
69.08000 389.000
69.10000 337.000
69.12000 304.000
69.14000 313.000
69.16000 340.000
69.18000 359.000
69.20000 371.000
69.22000 393.000
69.24000 422.000
69.26000 393.000
69.28000 353.000
69.30000 326.000
69.32000 323.000
69.34000 299.000
69.36000 306.000
69.38000 279.000
69.40000 303.000
69.42000 292.000
69.44000 303.000
69.46000 307.000
69.48000 320.000
69.50000 286.000
69.52000 314.000
69.54000 328.000
69.56000 319.000
69.58000 306.000
69.60000 280.000
69.62000 301.000
69.64000 311.000
69.66000 322.000
69.68000 331.000
69.70000 317.000
69.72000 321.000
69.74000 317.000
69.76000 314.000
69.78000 328.000
69.80000 338.000
69.82000 303.000
69.84000 307.000
69.86000 336.000
69.88000 369.000
69.90000 406.000
69.92000 423.000
69.94000 537.000
69.96000 682.000
69.98000 1008.000
70.00000 1585.000
70.02000 2361.000
70.04000 2923.000
70.06000 2740.000
70.08000 2026.000
70.10000 1222.000
70.12000 797.000
70.14000 597.000
70.16000 694.000
70.18000 747.000
70.20000 978.000
70.22000 1411.000
70.24000 1609.000
70.26000 1562.000
70.28000 1113.000
70.30000 768.000
70.32000 542.000
70.34000 450.000
70.36000 390.000
70.38000 368.000
70.40000 352.000
70.42000 316.000
70.44000 320.000
70.46000 309.000
70.48000 321.000
70.50000 287.000
70.52000 297.000
70.54000 298.000
70.56000 296.000
70.58000 287.000
70.60000 315.000
70.62000 278.000
70.64000 288.000
70.66000 292.000
70.68000 289.000
70.70000 305.000
70.72000 302.000
70.74000 298.000
70.76000 272.000
70.78000 286.000
70.80000 257.000
70.82000 297.000
70.84000 284.000
70.86000 302.000
70.88000 294.000
70.90000 284.000
70.92000 276.000
70.94000 282.000
70.96000 285.000
70.98000 293.000
71.00000 279.000
71.02000 309.000
71.04000 273.000
71.06000 272.000
71.08000 295.000
71.10000 312.000
71.12000 310.000
71.14000 270.000
71.16000 296.000
71.18000 286.000
71.20000 308.000
71.22000 315.000
71.24000 283.000
71.26000 282.000
71.28000 274.000
71.30000 279.000
71.32000 300.000
71.34000 275.000
71.36000 283.000
71.38000 293.000
71.40000 267.000
71.42000 275.000
71.44000 290.000
71.46000 317.000
71.48000 292.000
71.50000 319.000
71.52000 348.000
71.54000 328.000
71.56000 317.000
71.58000 348.000
71.60000 339.000
71.62000 353.000
71.64000 369.000
71.66000 382.000
71.68000 411.000
71.70000 378.000
71.72000 388.000
71.74000 407.000
71.76000 447.000
71.78000 439.000
71.80000 412.000
71.82000 429.000
71.84000 494.000
71.86000 516.000
71.88000 595.000
71.90000 647.000
71.92000 794.000
71.94000 1027.000
71.96000 1612.000
71.98000 2641.000
72.00000 4401.000
72.02000 6362.000
72.04000 7342.000
72.06000 6137.000
72.08000 3904.000
72.10000 2208.000
72.12000 1420.000
72.14000 1110.000
72.16000 1127.000
72.18000 1491.000
72.20000 2151.000
72.22000 3031.000
72.24000 3786.000
72.26000 3598.000
72.28000 2568.000
72.30000 1607.000
72.32000 1030.000
72.34000 709.000
72.36000 575.000
72.38000 532.000
72.40000 448.000
72.42000 438.000
72.44000 422.000
72.46000 404.000
72.48000 386.000
72.50000 356.000
72.52000 385.000
72.54000 349.000
72.56000 350.000
72.58000 351.000
72.60000 337.000
72.62000 346.000
72.64000 324.000
72.66000 294.000
72.68000 337.000
72.70000 312.000
72.72000 289.000
72.74000 300.000
72.76000 339.000
72.78000 313.000
72.80000 308.000
72.82000 305.000
72.84000 327.000
72.86000 332.000
72.88000 322.000
72.90000 349.000
72.92000 402.000
72.94000 454.000
72.96000 550.000
72.98000 789.000
73.00000 1077.000
73.02000 1344.000
73.04000 1340.000
73.06000 981.000
73.08000 614.000
73.10000 481.000
73.12000 405.000
73.14000 392.000
73.16000 424.000
73.18000 533.000
73.20000 584.000
73.22000 753.000
73.24000 782.000
73.26000 698.000
73.28000 563.000
73.30000 434.000
73.32000 391.000
73.34000 350.000
73.36000 327.000
73.38000 309.000
73.40000 320.000
73.42000 318.000
73.44000 312.000
73.46000 322.000
73.48000 331.000
73.50000 303.000
73.52000 309.000
73.54000 287.000
73.56000 310.000
73.58000 312.000
73.60000 325.000
73.62000 299.000
73.64000 333.000
73.66000 320.000
73.68000 308.000
73.70000 322.000
73.72000 317.000
73.74000 302.000
73.76000 292.000
73.78000 296.000
73.80000 308.000
73.82000 335.000
73.84000 336.000
73.86000 366.000
73.88000 420.000
73.90000 451.000
73.92000 551.000
73.94000 761.000
73.96000 1175.000
73.98000 1720.000
74.00000 2090.000
74.02000 2127.000
74.04000 1643.000
74.06000 1044.000
74.08000 703.000
74.10000 558.000
74.12000 498.000
74.14000 510.000
74.16000 622.000
74.18000 812.000
74.20000 1085.000
74.22000 1232.000
74.24000 1170.000
74.26000 825.000
74.28000 589.000
74.30000 455.000
74.32000 386.000
74.34000 375.000
74.36000 333.000
74.38000 289.000
74.40000 313.000
74.42000 302.000
74.44000 303.000
74.46000 326.000
74.48000 307.000
74.50000 294.000
74.52000 294.000
74.54000 308.000
74.56000 308.000
74.58000 268.000
74.60000 309.000
74.62000 273.000
74.64000 300.000
74.66000 297.000
74.68000 290.000
74.70000 279.000
74.72000 291.000
74.74000 268.000
74.76000 277.000
74.78000 282.000
74.80000 287.000
74.82000 291.000
74.84000 300.000
74.86000 303.000
74.88000 311.000
74.90000 325.000
74.92000 349.000
74.94000 454.000
74.96000 520.000
74.98000 589.000
75.00000 562.000
75.02000 472.000
75.04000 388.000
75.06000 329.000
75.08000 301.000
75.10000 305.000
75.12000 301.000
75.14000 341.000
75.16000 364.000
75.18000 385.000
75.20000 440.000
75.22000 425.000
75.24000 369.000
75.26000 330.000
75.28000 318.000
75.30000 248.000
75.32000 304.000
75.34000 266.000
75.36000 242.000
75.38000 266.000
75.40000 236.000
75.42000 272.000
75.44000 256.000
75.46000 274.000
75.48000 281.000
75.50000 260.000
75.52000 253.000
75.54000 267.000
75.56000 251.000
75.58000 280.000
75.60000 269.000
75.62000 274.000
75.64000 271.000
75.66000 247.000
75.68000 279.000
75.70000 273.000
75.72000 261.000
75.74000 235.000
75.76000 266.000
75.78000 265.000
75.80000 279.000
75.82000 262.000
75.84000 273.000
75.86000 253.000
75.88000 259.000
75.90000 262.000
75.92000 232.000
75.94000 265.000
75.96000 217.000
75.98000 268.000
76.00000 261.000
76.02000 241.000
76.04000 267.000
76.06000 249.000
76.08000 282.000
76.10000 273.000
76.12000 258.000
76.14000 267.000
76.16000 284.000
76.18000 286.000
76.20000 273.000
76.22000 269.000
76.24000 256.000
76.26000 257.000
76.28000 264.000
76.30000 261.000
76.32000 243.000
76.34000 257.000
76.36000 260.000
76.38000 277.000
76.40000 268.000
76.42000 283.000
76.44000 284.000
76.46000 285.000
76.48000 285.000
76.50000 293.000
76.52000 308.000
76.54000 271.000
76.56000 293.000
76.58000 307.000
76.60000 328.000
76.62000 314.000
76.64000 319.000
76.66000 312.000
76.68000 325.000
76.70000 309.000
76.72000 305.000
76.74000 318.000
76.76000 341.000
76.78000 337.000
76.80000 358.000
76.82000 366.000
76.84000 386.000
76.86000 567.000
76.88000 766.000
76.90000 1055.000
76.92000 1316.000
76.94000 1235.000
76.96000 976.000
76.98000 641.000
77.00000 495.000
77.02000 419.000
77.04000 392.000
77.06000 385.000
77.08000 434.000
77.10000 498.000
77.12000 652.000
77.14000 724.000
77.16000 781.000
77.18000 705.000
77.20000 517.000
77.22000 419.000
77.24000 365.000
77.26000 336.000
77.28000 309.000
77.30000 297.000
77.32000 275.000
77.34000 289.000
77.36000 260.000
77.38000 304.000
77.40000 266.000
77.42000 254.000
77.44000 289.000
77.46000 273.000
77.48000 274.000
77.50000 275.000
77.52000 254.000
77.54000 260.000
77.56000 278.000
77.58000 240.000
77.60000 247.000
77.62000 258.000
77.64000 276.000
77.66000 269.000
77.68000 266.000
77.70000 295.000
77.72000 252.000
77.74000 266.000
77.76000 280.000
77.78000 256.000
77.80000 243.000
77.82000 290.000
77.84000 305.000
77.86000 328.000
77.88000 380.000
77.90000 331.000
77.92000 307.000
77.94000 290.000
77.96000 279.000
77.98000 287.000
78.00000 268.000
78.02000 287.000
78.04000 256.000
78.06000 277.000
78.08000 292.000
78.10000 286.000
78.12000 312.000
78.14000 298.000
78.16000 289.000
78.18000 262.000
78.20000 252.000
78.22000 264.000
78.24000 277.000
78.26000 270.000
78.28000 268.000
78.30000 265.000
78.32000 275.000
78.34000 246.000
78.36000 283.000
78.38000 246.000
78.40000 260.000
78.42000 244.000
78.44000 265.000
78.46000 275.000
78.48000 285.000
78.50000 280.000
78.52000 289.000
78.54000 275.000
78.56000 282.000
78.58000 258.000
78.60000 281.000
78.62000 272.000
78.64000 269.000
78.66000 269.000
78.68000 259.000
78.70000 281.000
78.72000 305.000
78.74000 295.000
78.76000 328.000
78.78000 396.000
78.80000 460.000
78.82000 590.000
78.84000 724.000
78.86000 772.000
78.88000 656.000
78.90000 477.000
78.92000 424.000
78.94000 340.000
78.96000 308.000
78.98000 337.000
79.00000 330.000
79.02000 329.000
79.04000 410.000
79.06000 450.000
79.08000 495.000
79.10000 488.000
79.12000 422.000
79.14000 377.000
79.16000 330.000
79.18000 302.000
79.20000 281.000
79.22000 278.000
79.24000 266.000
79.26000 267.000
79.28000 281.000
79.30000 254.000
79.32000 285.000
79.34000 280.000
79.36000 288.000
79.38000 278.000
79.40000 279.000
79.42000 286.000
79.44000 256.000
79.46000 275.000
79.48000 277.000
79.50000 296.000
79.52000 292.000
79.54000 291.000
79.56000 244.000
79.58000 242.000
79.60000 254.000
79.62000 253.000
79.64000 256.000
79.66000 287.000
79.68000 257.000
79.70000 252.000
79.72000 255.000
79.74000 268.000
79.76000 268.000
79.78000 244.000
79.80000 274.000
79.82000 241.000
79.84000 223.000
79.86000 268.000
79.88000 294.000
79.90000 237.000
79.92000 245.000
79.94000 253.000
79.96000 259.000
79.98000 231.000
80.00000 248.000
80.02000 242.000
80.04000 259.000
80.06000 252.000
80.08000 256.000
80.10000 254.000
80.12000 253.000
80.14000 234.000
80.16000 259.000
80.18000 265.000
80.20000 269.000
80.22000 228.000
80.24000 251.000
80.26000 304.000
80.28000 266.000
80.30000 282.000
80.32000 271.000
80.34000 278.000
80.36000 283.000
80.38000 265.000
80.40000 295.000
80.42000 270.000
80.44000 291.000
80.46000 276.000
80.48000 270.000
80.50000 261.000
80.52000 275.000
80.54000 269.000
80.56000 279.000
80.58000 255.000
80.60000 265.000
80.62000 289.000
80.64000 300.000
80.66000 327.000
80.68000 294.000
80.70000 329.000
80.72000 407.000
80.74000 524.000
80.76000 577.000
80.78000 567.000
80.80000 504.000
80.82000 399.000
80.84000 339.000
80.86000 307.000
80.88000 262.000
80.90000 270.000
80.92000 296.000
80.94000 292.000
80.96000 357.000
80.98000 409.000
81.00000 421.000
81.02000 447.000
81.04000 396.000
81.06000 354.000
81.08000 295.000
81.10000 263.000
81.12000 297.000
81.14000 280.000
81.16000 267.000
81.18000 269.000
81.20000 272.000
81.22000 277.000
81.24000 260.000
81.26000 289.000
81.28000 277.000
81.30000 270.000
81.32000 249.000
81.34000 275.000
81.36000 290.000
81.38000 299.000
81.40000 254.000
81.42000 310.000
81.44000 292.000
81.46000 281.000
81.48000 293.000
81.50000 287.000
81.52000 307.000
81.54000 297.000
81.56000 330.000
81.58000 336.000
81.60000 373.000
81.62000 405.000
81.64000 491.000
81.66000 675.000
81.68000 910.000
81.70000 1258.000
81.72000 1452.000
81.74000 1339.000
81.76000 942.000
81.78000 667.000
81.80000 488.000
81.82000 406.000
81.84000 382.000
81.86000 345.000
81.88000 425.000
81.90000 484.000
81.92000 538.000
81.94000 736.000
81.96000 916.000
81.98000 839.000
82.00000 705.000
82.02000 528.000
82.04000 412.000
82.06000 328.000
82.08000 328.000
82.10000 300.000
82.12000 300.000
82.14000 311.000
82.16000 287.000
82.18000 291.000
82.20000 302.000
82.22000 279.000
82.24000 274.000
82.26000 298.000
82.28000 304.000
82.30000 302.000
82.32000 278.000
82.34000 261.000
82.36000 273.000
82.38000 267.000
82.40000 270.000
82.42000 281.000
82.44000 270.000
82.46000 273.000
82.48000 252.000
82.50000 261.000
82.52000 260.000
82.54000 264.000
82.56000 237.000
82.58000 266.000
82.60000 276.000
82.62000 284.000
82.64000 295.000
82.66000 291.000
82.68000 280.000
82.70000 320.000
82.72000 288.000
82.74000 270.000
82.76000 273.000
82.78000 290.000
82.80000 257.000
82.82000 276.000
82.84000 275.000
82.86000 250.000
82.88000 267.000
82.90000 292.000
82.92000 272.000
82.94000 287.000
82.96000 258.000
82.98000 281.000
83.00000 248.000
83.02000 258.000
83.04000 266.000
83.06000 269.000
83.08000 257.000
83.10000 284.000
83.12000 256.000
83.14000 267.000
83.16000 241.000
83.18000 266.000
83.20000 251.000
83.22000 263.000
83.24000 264.000
83.26000 274.000
83.28000 273.000
83.30000 265.000
83.32000 261.000
83.34000 269.000
83.36000 262.000
83.38000 268.000
83.40000 252.000
83.42000 254.000
83.44000 243.000
83.46000 265.000
83.48000 291.000
83.50000 283.000
83.52000 256.000
83.54000 229.000
83.56000 258.000
83.58000 265.000
83.60000 261.000
83.62000 236.000
83.64000 252.000
83.66000 250.000
83.68000 251.000
83.70000 252.000
83.72000 262.000
83.74000 278.000
83.76000 290.000
83.78000 274.000
83.80000 261.000
83.82000 259.000
83.84000 269.000
83.86000 284.000
83.88000 286.000
83.90000 233.000
83.92000 275.000
83.94000 267.000
83.96000 264.000
83.98000 304.000
84.00000 262.000
84.02000 290.000
84.04000 297.000
84.06000 280.000
84.08000 289.000
84.10000 306.000
84.12000 283.000
84.14000 308.000
84.16000 304.000
84.18000 293.000
84.20000 262.000
84.22000 302.000
84.24000 308.000
84.26000 277.000
84.28000 289.000
84.30000 290.000
84.32000 281.000
84.34000 307.000
84.36000 300.000
84.38000 334.000
84.40000 325.000
84.42000 318.000
84.44000 353.000
84.46000 401.000
84.48000 494.000
84.50000 675.000
84.52000 1012.000
84.54000 1313.000
84.56000 1594.000
84.58000 1492.000
84.60000 1127.000
84.62000 825.000
84.64000 586.000
84.66000 424.000
84.68000 432.000
84.70000 404.000
84.72000 396.000
84.74000 452.000
84.76000 496.000
84.78000 661.000
84.80000 828.000
84.82000 909.000
84.84000 874.000
84.86000 714.000
84.88000 540.000
84.90000 432.000
84.92000 365.000
84.94000 311.000
84.96000 298.000
84.98000 283.000
85.00000 284.000
85.02000 289.000
85.04000 301.000
85.06000 313.000
85.08000 256.000
85.10000 260.000
85.12000 280.000
85.14000 267.000
85.16000 245.000
85.18000 274.000
85.20000 258.000
85.22000 284.000
85.24000 251.000
85.26000 268.000
85.28000 238.000
85.30000 268.000
85.32000 269.000
85.34000 276.000
85.36000 252.000
85.38000 261.000
85.40000 247.000
85.42000 251.000
85.44000 262.000
85.46000 303.000
85.48000 258.000
85.50000 264.000
85.52000 268.000
85.54000 281.000
85.56000 266.000
85.58000 274.000
85.60000 299.000
85.62000 270.000
85.64000 264.000
85.66000 263.000
85.68000 271.000
85.70000 265.000
85.72000 250.000
85.74000 258.000
85.76000 260.000
85.78000 258.000
85.80000 274.000
85.82000 240.000
85.84000 272.000
85.86000 240.000
85.88000 280.000
85.90000 279.000
85.92000 282.000
85.94000 269.000
85.96000 276.000
85.98000 280.000
86.00000 254.000
86.02000 281.000
86.04000 270.000
86.06000 263.000
86.08000 270.000
86.10000 254.000
86.12000 262.000
86.14000 252.000
86.16000 278.000
86.18000 257.000
86.20000 317.000
86.22000 274.000
86.24000 253.000
86.26000 270.000
86.28000 279.000
86.30000 286.000
86.32000 291.000
86.34000 255.000
86.36000 299.000
86.38000 279.000
86.40000 270.000
86.42000 301.000
86.44000 296.000
86.46000 289.000
86.48000 286.000
86.50000 302.000
86.52000 269.000
86.54000 253.000
86.56000 277.000
86.58000 305.000
86.60000 295.000
86.62000 304.000
86.64000 290.000
86.66000 304.000
86.68000 286.000
86.70000 281.000
86.72000 313.000
86.74000 296.000
86.76000 247.000
86.78000 290.000
86.80000 309.000
86.82000 290.000
86.84000 339.000
86.86000 331.000
86.88000 333.000
86.90000 309.000
86.92000 361.000
86.94000 328.000
86.96000 371.000
86.98000 361.000
87.00000 352.000
87.02000 348.000
87.04000 362.000
87.06000 367.000
87.08000 367.000
87.10000 376.000
87.12000 381.000
87.14000 449.000
87.16000 399.000
87.18000 434.000
87.20000 455.000
87.22000 520.000
87.24000 589.000
87.26000 700.000
87.28000 846.000
87.30000 1230.000
87.32000 1722.000
87.34000 2696.000
87.36000 4337.000
87.38000 5909.000
87.40000 6611.000
87.42000 5488.000
87.44000 3747.000
87.46000 2375.000
87.48000 1506.000
87.50000 1022.000
87.52000 874.000
87.54000 828.000
87.56000 801.000
87.58000 1004.000
87.60000 1332.000
87.62000 1920.000
87.64000 2666.000
87.66000 3270.000
87.68000 3359.000
87.70000 2615.000
87.72000 1778.000
87.74000 1181.000
87.76000 850.000
87.78000 685.000
87.80000 564.000
87.82000 514.000
87.84000 439.000
87.86000 400.000
87.88000 403.000
87.90000 379.000
87.92000 377.000
87.94000 399.000
87.96000 398.000
87.98000 361.000
88.00000 360.000
88.02000 331.000
88.04000 313.000
88.06000 333.000
88.08000 342.000
88.10000 330.000
88.12000 335.000
88.14000 337.000
88.16000 335.000
88.18000 342.000
88.20000 356.000
88.22000 368.000
88.24000 371.000
88.26000 444.000
88.28000 531.000
88.30000 692.000
88.32000 899.000
88.34000 974.000
88.36000 869.000
88.38000 683.000
88.40000 561.000
88.42000 456.000
88.44000 379.000
88.46000 387.000
88.48000 380.000
88.50000 364.000
88.52000 347.000
88.54000 370.000
88.56000 438.000
88.58000 475.000
88.60000 569.000
88.62000 633.000
88.64000 582.000
88.66000 485.000
88.68000 422.000
88.70000 375.000
88.72000 343.000
88.74000 317.000
88.76000 325.000
88.78000 339.000
88.80000 299.000
88.82000 327.000
88.84000 310.000
88.86000 334.000
88.88000 314.000
88.90000 300.000
88.92000 328.000
88.94000 316.000
88.96000 325.000
88.98000 317.000
89.00000 325.000
89.02000 359.000
89.04000 358.000
89.06000 346.000
89.08000 348.000
89.10000 366.000
89.12000 400.000
89.14000 379.000
89.16000 477.000
89.18000 585.000
89.20000 750.000
89.22000 1109.000
89.24000 1650.000
89.26000 2330.000
89.28000 2704.000
89.30000 2453.000
89.32000 1736.000
89.34000 1186.000
89.36000 815.000
89.38000 608.000
89.40000 531.000
89.42000 476.000
89.44000 491.000
89.46000 525.000
89.48000 559.000
89.50000 722.000
89.52000 958.000
89.54000 1318.000
89.56000 1430.000
89.58000 1402.000
89.60000 1091.000
89.62000 810.000
89.64000 616.000
89.66000 466.000
89.68000 425.000
89.70000 356.000
89.72000 348.000
89.74000 309.000
89.76000 331.000
89.78000 306.000
89.80000 312.000
89.82000 293.000
89.84000 285.000
89.86000 303.000
89.88000 277.000
89.90000 280.000
89.92000 285.000
89.94000 301.000
89.96000 299.000
89.98000 273.000
