5.00000 399.000
5.02000 387.000
5.04000 406.000
5.06000 388.000
5.08000 406.000
5.10000 386.000
5.12000 410.000
5.14000 411.000
5.16000 396.000
5.18000 377.000
5.20000 397.000
5.22000 379.000
5.24000 386.000
5.26000 379.000
5.28000 400.000
5.30000 412.000
5.32000 382.000
5.34000 393.000
5.36000 413.000
5.38000 392.000
5.40000 390.000
5.42000 385.000
5.44000 386.000
5.46000 392.000
5.48000 432.000
5.50000 380.000
5.52000 417.000
5.54000 386.000
5.56000 381.000
5.58000 373.000
5.60000 412.000
5.62000 391.000
5.64000 394.000
5.66000 372.000
5.68000 359.000
5.70000 374.000
5.72000 340.000
5.74000 345.000
5.76000 392.000
5.78000 410.000
5.80000 401.000
5.82000 419.000
5.84000 372.000
5.86000 395.000
5.88000 369.000
5.90000 372.000
5.92000 396.000
5.94000 365.000
5.96000 386.000
5.98000 386.000
6.00000 392.000
6.02000 387.000
6.04000 365.000
6.06000 378.000
6.08000 373.000
6.10000 401.000
6.12000 393.000
6.14000 400.000
6.16000 405.000
6.18000 364.000
6.20000 381.000
6.22000 357.000
6.24000 353.000
6.26000 401.000
6.28000 391.000
6.30000 413.000
6.32000 380.000
6.34000 381.000
6.36000 354.000
6.38000 407.000
6.40000 413.000
6.42000 377.000
6.44000 369.000
6.46000 422.000
6.48000 396.000
6.50000 400.000
6.52000 377.000
6.54000 422.000
6.56000 369.000
6.58000 368.000
6.60000 402.000
6.62000 412.000
6.64000 445.000
6.66000 406.000
6.68000 389.000
6.70000 388.000
6.72000 421.000
6.74000 416.000
6.76000 406.000
6.78000 384.000
6.80000 382.000
6.82000 404.000
6.84000 402.000
6.86000 396.000
6.88000 385.000
6.90000 403.000
6.92000 408.000
6.94000 411.000
6.96000 374.000
6.98000 440.000
7.00000 417.000
7.02000 388.000
7.04000 398.000
7.06000 408.000
7.08000 393.000
7.10000 380.000
7.12000 370.000
7.14000 394.000
7.16000 375.000
7.18000 406.000
7.20000 400.000
7.22000 379.000
7.24000 428.000
7.26000 398.000
7.28000 359.000
7.30000 402.000
7.32000 380.000
7.34000 361.000
7.36000 418.000
7.38000 396.000
7.40000 386.000
7.42000 392.000
7.44000 369.000
7.46000 436.000
7.48000 423.000
7.50000 386.000
7.52000 380.000
7.54000 404.000
7.56000 386.000
7.58000 401.000
7.60000 366.000
7.62000 418.000
7.64000 424.000
7.66000 400.000
7.68000 358.000
7.70000 397.000
7.72000 398.000
7.74000 396.000
7.76000 405.000
7.78000 389.000
7.80000 396.000
7.82000 409.000
7.84000 410.000
7.86000 392.000
7.88000 404.000
7.90000 401.000
7.92000 403.000
7.94000 385.000
7.96000 393.000
7.98000 399.000
8.00000 413.000
8.02000 421.000
8.04000 398.000
8.06000 393.000
8.08000 396.000
8.10000 407.000
8.12000 397.000
8.14000 396.000
8.16000 409.000
8.18000 379.000
8.20000 405.000
8.22000 420.000
8.24000 390.000
8.26000 416.000
8.28000 411.000
8.30000 409.000
8.32000 390.000
8.34000 384.000
8.36000 412.000
8.38000 382.000
8.40000 393.000
8.42000 397.000
8.44000 440.000
8.46000 400.000
8.48000 431.000
8.50000 402.000
8.52000 394.000
8.54000 378.000
8.56000 413.000
8.58000 417.000
8.60000 408.000
8.62000 423.000
8.64000 403.000
8.66000 407.000
8.68000 428.000
8.70000 390.000
8.72000 401.000
8.74000 411.000
8.76000 375.000
8.78000 393.000
8.80000 424.000
8.82000 413.000
8.84000 444.000
8.86000 418.000
8.88000 403.000
8.90000 404.000
8.92000 412.000
8.94000 376.000
8.96000 408.000
8.98000 391.000
9.00000 426.000
9.02000 448.000
9.04000 421.000
9.06000 389.000
9.08000 400.000
9.10000 404.000
9.12000 389.000
9.14000 415.000
9.16000 423.000
9.18000 370.000
9.20000 391.000
9.22000 397.000
9.24000 407.000
9.26000 379.000
9.28000 402.000
9.30000 395.000
9.32000 399.000
9.34000 375.000
9.36000 388.000
9.38000 403.000
9.40000 401.000
9.42000 398.000
9.44000 405.000
9.46000 373.000
9.48000 403.000
9.50000 426.000
9.52000 387.000
9.54000 395.000
9.56000 413.000
9.58000 413.000
9.60000 427.000
9.62000 384.000
9.64000 394.000
9.66000 438.000
9.68000 397.000
9.70000 389.000
9.72000 389.000
9.74000 413.000
9.76000 420.000
9.78000 398.000
9.80000 365.000
9.82000 384.000
9.84000 411.000
9.86000 426.000
9.88000 421.000
9.90000 413.000
9.92000 408.000
9.94000 405.000
9.96000 416.000
9.98000 409.000
10.00000 419.000
10.02000 381.000
10.04000 392.000
10.06000 401.000
10.08000 389.000
10.10000 428.000
10.12000 443.000
10.14000 418.000
10.16000 414.000
10.18000 389.000
10.20000 406.000
10.22000 406.000
10.24000 397.000
10.26000 388.000
10.28000 419.000
10.30000 408.000
10.32000 383.000
10.34000 411.000
10.36000 393.000
10.38000 404.000
10.40000 395.000
10.42000 410.000
10.44000 428.000
10.46000 389.000
10.48000 400.000
10.50000 454.000
10.52000 418.000
10.54000 401.000
10.56000 370.000
10.58000 395.000
10.60000 431.000
10.62000 415.000
10.64000 428.000
10.66000 411.000
10.68000 401.000
10.70000 379.000
10.72000 403.000
10.74000 394.000
10.76000 420.000
10.78000 439.000
10.80000 382.000
10.82000 401.000
10.84000 373.000
10.86000 403.000
10.88000 432.000
10.90000 399.000
10.92000 401.000
10.94000 411.000
10.96000 408.000
10.98000 443.000
11.00000 423.000
11.02000 432.000
11.04000 418.000
11.06000 416.000
11.08000 417.000
11.10000 403.000
11.12000 408.000
11.14000 406.000
11.16000 423.000
11.18000 411.000
11.20000 415.000
11.22000 410.000
11.24000 416.000
11.26000 427.000
11.28000 419.000
11.30000 422.000
11.32000 420.000
11.34000 397.000
11.36000 416.000
11.38000 426.000
11.40000 422.000
11.42000 407.000
11.44000 401.000
11.46000 415.000
11.48000 419.000
11.50000 377.000
11.52000 401.000
11.54000 397.000
11.56000 425.000
11.58000 413.000
11.60000 415.000
11.62000 415.000
11.64000 452.000
11.66000 413.000
11.68000 398.000
11.70000 402.000
11.72000 422.000
11.74000 424.000
11.76000 440.000
11.78000 414.000
11.80000 433.000
11.82000 467.000
11.84000 418.000
11.86000 431.000
11.88000 430.000
11.90000 437.000
11.92000 418.000
11.94000 405.000
11.96000 408.000
11.98000 407.000
12.00000 438.000
12.02000 382.000
12.04000 435.000
12.06000 408.000
12.08000 467.000
12.10000 447.000
12.12000 438.000
12.14000 433.000
12.16000 463.000
12.18000 429.000
12.20000 425.000
12.22000 392.000
12.24000 444.000
12.26000 436.000
12.28000 411.000
12.30000 453.000
12.32000 456.000
12.34000 451.000
12.36000 411.000
12.38000 427.000
12.40000 423.000
12.42000 426.000
12.44000 396.000
12.46000 382.000
12.48000 393.000
12.50000 411.000
12.52000 408.000
12.54000 436.000
12.56000 418.000
12.58000 441.000
12.60000 417.000
12.62000 447.000
12.64000 442.000
12.66000 411.000
12.68000 435.000
12.70000 437.000
12.72000 422.000
12.74000 438.000
12.76000 460.000
12.78000 449.000
12.80000 443.000
12.82000 427.000
12.84000 435.000
12.86000 423.000
12.88000 456.000
12.90000 416.000
12.92000 454.000
12.94000 439.000
12.96000 441.000
12.98000 440.000
13.00000 443.000
13.02000 438.000
13.04000 436.000
13.06000 414.000
13.08000 413.000
13.10000 422.000
13.12000 450.000
13.14000 442.000
13.16000 421.000
13.18000 432.000
13.20000 458.000
13.22000 413.000
13.24000 395.000
13.26000 402.000
13.28000 436.000
13.30000 403.000
13.32000 447.000
13.34000 453.000
13.36000 447.000
13.38000 469.000
13.40000 458.000
13.42000 443.000
13.44000 442.000
13.46000 437.000
13.48000 440.000
13.50000 449.000
13.52000 465.000
13.54000 448.000
13.56000 420.000
13.58000 429.000
13.60000 439.000
13.62000 437.000
13.64000 441.000
13.66000 442.000
13.68000 427.000
13.70000 448.000
13.72000 422.000
13.74000 427.000
13.76000 435.000
13.78000 461.000
13.80000 439.000
13.82000 465.000
13.84000 443.000
13.86000 432.000
13.88000 445.000
13.90000 440.000
13.92000 462.000
13.94000 422.000
13.96000 484.000
13.98000 470.000
14.00000 459.000
14.02000 426.000
14.04000 452.000
14.06000 460.000
14.08000 446.000
14.10000 461.000
14.12000 488.000
14.14000 474.000
14.16000 431.000
14.18000 487.000
14.20000 445.000
14.22000 434.000
14.24000 447.000
14.26000 435.000
14.28000 438.000
14.30000 481.000
14.32000 461.000
14.34000 436.000
14.36000 451.000
14.38000 429.000
14.40000 443.000
14.42000 463.000
14.44000 433.000
14.46000 434.000
14.48000 481.000
14.50000 458.000
14.52000 437.000
14.54000 456.000
14.56000 415.000
14.58000 448.000
14.60000 452.000
14.62000 463.000
14.64000 438.000
14.66000 458.000
14.68000 446.000
14.70000 435.000
14.72000 464.000
14.74000 507.000
14.76000 507.000
14.78000 454.000
14.80000 477.000
14.82000 452.000
14.84000 411.000
14.86000 441.000
14.88000 438.000
14.90000 463.000
14.92000 448.000
14.94000 468.000
14.96000 431.000
14.98000 448.000
15.00000 457.000
15.02000 484.000
15.04000 402.000
15.06000 466.000
15.08000 492.000
15.10000 476.000
15.12000 462.000
15.14000 489.000
15.16000 449.000
15.18000 425.000
15.20000 491.000
15.22000 482.000
15.24000 470.000
15.26000 465.000
15.28000 499.000
15.30000 452.000
15.32000 452.000
15.34000 475.000
15.36000 480.000
15.38000 454.000
15.40000 449.000
15.42000 481.000
15.44000 503.000
15.46000 449.000
15.48000 457.000
15.50000 487.000
15.52000 458.000
15.54000 455.000
15.56000 483.000
15.58000 508.000
15.60000 444.000
15.62000 484.000
15.64000 445.000
15.66000 458.000
15.68000 483.000
15.70000 526.000
15.72000 494.000
15.74000 468.000
15.76000 437.000
15.78000 464.000
15.80000 480.000
15.82000 471.000
15.84000 479.000
15.86000 462.000
15.88000 486.000
15.90000 485.000
15.92000 516.000
15.94000 474.000
15.96000 471.000
15.98000 469.000
16.00000 489.000
16.02000 459.000
16.04000 480.000
16.06000 486.000
16.08000 467.000
16.10000 442.000
16.12000 487.000
16.14000 511.000
16.16000 489.000
16.18000 454.000
16.20000 457.000
16.22000 474.000
16.24000 499.000
16.26000 511.000
16.28000 482.000
16.30000 500.000
16.32000 484.000
16.34000 474.000
16.36000 497.000
16.38000 498.000
16.40000 481.000
16.42000 474.000
16.44000 491.000
16.46000 472.000
16.48000 499.000
16.50000 494.000
16.52000 542.000
16.54000 509.000
16.56000 528.000
16.58000 504.000
16.60000 481.000
16.62000 498.000
16.64000 495.000
16.66000 478.000
16.68000 482.000
16.70000 541.000
16.72000 514.000
16.74000 510.000
16.76000 491.000
16.78000 506.000
16.80000 502.000
16.82000 530.000
16.84000 504.000
16.86000 521.000
16.88000 497.000
16.90000 534.000
16.92000 499.000
16.94000 508.000
16.96000 510.000
16.98000 510.000
17.00000 501.000
17.02000 525.000
17.04000 499.000
17.06000 561.000
17.08000 539.000
17.10000 462.000
17.12000 527.000
17.14000 515.000
17.16000 525.000
17.18000 520.000
17.20000 512.000
17.22000 479.000
17.24000 542.000
17.26000 518.000
17.28000 557.000
17.30000 537.000
17.32000 534.000
17.34000 555.000
17.36000 508.000
17.38000 504.000
17.40000 541.000
17.42000 532.000
17.44000 532.000
17.46000 567.000
17.48000 559.000
17.50000 555.000
17.52000 534.000
17.54000 544.000
17.56000 566.000
17.58000 540.000
17.60000 567.000
17.62000 562.000
17.64000 587.000
17.66000 619.000
17.68000 589.000
17.70000 592.000
17.72000 592.000
17.74000 602.000
17.76000 631.000
17.78000 625.000
17.80000 680.000
17.82000 662.000
17.84000 636.000
17.86000 681.000
17.88000 652.000
17.90000 714.000
17.92000 776.000
17.94000 832.000
17.96000 805.000
17.98000 883.000
18.00000 924.000
18.02000 990.000
18.04000 1046.000
18.06000 1137.000
18.08000 1202.000
18.10000 1373.000
18.12000 1674.000
18.14000 1953.000
18.16000 2870.000
18.18000 4127.000
18.20000 6336.000
18.22000 9093.000
18.24000 12425.000
18.26000 13738.000
18.28000 11716.000
18.30000 8454.000
18.32000 5486.000
18.34000 2897.000
18.36000 1507.000
18.38000 1121.000
18.40000 980.000
18.42000 911.000
18.44000 787.000
18.46000 810.000
18.48000 763.000
18.50000 700.000
18.52000 702.000
18.54000 755.000
18.56000 698.000
18.58000 673.000
18.60000 731.000
18.62000 679.000
18.64000 711.000
18.66000 675.000
18.68000 640.000
18.70000 650.000
18.72000 647.000
18.74000 653.000
18.76000 646.000
18.78000 632.000
18.80000 620.000
18.82000 619.000
18.84000 623.000
18.86000 609.000
18.88000 624.000
18.90000 650.000
18.92000 646.000
18.94000 644.000
18.96000 626.000
18.98000 637.000
19.00000 614.000
19.02000 632.000
19.04000 586.000
19.06000 598.000
19.08000 627.000
19.10000 595.000
19.12000 586.000
19.14000 640.000
19.16000 623.000
19.18000 593.000
19.20000 613.000
19.22000 642.000
19.24000 604.000
19.26000 662.000
19.28000 629.000
19.30000 614.000
19.32000 615.000
19.34000 645.000
19.36000 596.000
19.38000 632.000
19.40000 590.000
19.42000 597.000
19.44000 594.000
19.46000 630.000
19.48000 682.000
19.50000 574.000
19.52000 645.000
19.54000 624.000
19.56000 579.000
19.58000 585.000
19.60000 646.000
19.62000 628.000
19.64000 617.000
19.66000 611.000
19.68000 605.000
19.70000 614.000
19.72000 598.000
19.74000 573.000
19.76000 602.000
19.78000 635.000
19.80000 595.000
19.82000 580.000
19.84000 655.000
19.86000 645.000
19.88000 643.000
19.90000 594.000
19.92000 615.000
19.94000 625.000
19.96000 639.000
19.98000 620.000
20.00000 605.000
20.02000 558.000
20.04000 611.000
20.06000 614.000
20.08000 637.000
20.10000 669.000
20.12000 665.000
20.14000 651.000
20.16000 644.000
20.18000 623.000
20.20000 626.000
20.22000 621.000
20.24000 611.000
20.26000 622.000
20.28000 661.000
20.30000 590.000
20.32000 643.000
20.34000 589.000
20.36000 651.000
20.38000 635.000
20.40000 589.000
20.42000 595.000
20.44000 591.000
20.46000 647.000
20.48000 631.000
20.50000 640.000
20.52000 623.000
20.54000 610.000
20.56000 638.000
20.58000 676.000
20.60000 638.000
20.62000 672.000
20.64000 679.000
20.66000 634.000
20.68000 662.000
20.70000 654.000
20.72000 689.000
20.74000 655.000
20.76000 644.000
20.78000 686.000
20.80000 733.000
20.82000 723.000
20.84000 754.000
20.86000 723.000
20.88000 815.000
20.90000 798.000
20.92000 837.000
20.94000 868.000
20.96000 942.000
20.98000 1059.000
21.00000 1276.000
21.02000 1618.000
21.04000 2255.000
21.06000 3210.000
21.08000 4260.000
21.10000 4586.000
21.12000 4018.000
21.14000 3317.000
21.16000 2523.000
21.18000 1687.000
21.20000 1118.000
21.22000 837.000
21.24000 777.000
21.26000 746.000
21.28000 709.000
21.30000 702.000
21.32000 687.000
21.34000 681.000
21.36000 648.000
21.38000 675.000
21.40000 691.000
21.42000 640.000
21.44000 649.000
21.46000 643.000
21.48000 662.000
21.50000 687.000
21.52000 680.000
21.54000 670.000
21.56000 656.000
21.58000 665.000
21.60000 659.000
21.62000 653.000
21.64000 650.000
21.66000 621.000
21.68000 618.000
21.70000 604.000
21.72000 622.000
21.74000 636.000
21.76000 650.000
21.78000 611.000
21.80000 601.000
21.82000 647.000
21.84000 629.000
21.86000 635.000
21.88000 635.000
21.90000 637.000
21.92000 681.000
21.94000 645.000
21.96000 641.000
21.98000 674.000
22.00000 640.000
22.02000 643.000
22.04000 608.000
22.06000 605.000
22.08000 637.000
22.10000 606.000
22.12000 616.000
22.14000 628.000
22.16000 638.000
22.18000 612.000
22.20000 635.000
22.22000 629.000
22.24000 635.000
22.26000 629.000
22.28000 663.000
22.30000 619.000
22.32000 639.000
22.34000 649.000
22.36000 643.000
22.38000 647.000
22.40000 662.000
22.42000 581.000
22.44000 642.000
22.46000 638.000
22.48000 623.000
22.50000 592.000
22.52000 583.000
22.54000 632.000
22.56000 620.000
22.58000 616.000
22.60000 652.000
22.62000 616.000
22.64000 635.000
22.66000 628.000
22.68000 618.000
22.70000 621.000
22.72000 647.000
22.74000 655.000
22.76000 647.000
22.78000 625.000
22.80000 632.000
22.82000 651.000
22.84000 648.000
22.86000 656.000
22.88000 634.000
22.90000 629.000
22.92000 642.000
22.94000 641.000
22.96000 637.000
22.98000 641.000
23.00000 616.000
23.02000 638.000
23.04000 666.000
23.06000 627.000
23.08000 608.000
23.10000 624.000
23.12000 640.000
23.14000 645.000
23.16000 657.000
23.18000 638.000
23.20000 618.000
23.22000 635.000
23.24000 607.000
23.26000 647.000
23.28000 621.000
23.30000 607.000
23.32000 623.000
23.34000 629.000
23.36000 656.000
23.38000 653.000
23.40000 606.000
23.42000 621.000
23.44000 636.000
23.46000 631.000
23.48000 622.000
23.50000 661.000
23.52000 619.000
23.54000 619.000
23.56000 590.000
23.58000 617.000
23.60000 630.000
23.62000 623.000
23.64000 620.000
23.66000 643.000
23.68000 607.000
23.70000 623.000
23.72000 605.000
23.74000 594.000
23.76000 650.000
23.78000 682.000
23.80000 621.000
23.82000 615.000
23.84000 638.000
23.86000 603.000
23.88000 642.000
23.90000 652.000
23.92000 663.000
23.94000 672.000
23.96000 609.000
23.98000 624.000
24.00000 629.000
24.02000 622.000
24.04000 617.000
24.06000 654.000
24.08000 580.000
24.10000 585.000
24.12000 582.000
24.14000 582.000
24.16000 611.000
24.18000 643.000
24.20000 614.000
24.22000 623.000
24.24000 591.000
24.26000 611.000
24.28000 629.000
24.30000 669.000
24.32000 621.000
24.34000 650.000
24.36000 661.000
24.38000 629.000
24.40000 637.000
24.42000 628.000
24.44000 630.000
24.46000 626.000
24.48000 617.000
24.50000 626.000
24.52000 657.000
24.54000 659.000
24.56000 628.000
24.58000 646.000
24.60000 652.000
24.62000 664.000
24.64000 624.000
24.66000 584.000
24.68000 638.000
24.70000 652.000
24.72000 600.000
24.74000 618.000
24.76000 651.000
24.78000 604.000
24.80000 617.000
24.82000 629.000
24.84000 619.000
24.86000 630.000
24.88000 637.000
24.90000 627.000
24.92000 619.000
24.94000 625.000
24.96000 623.000
24.98000 663.000
25.00000 635.000
25.02000 633.000
25.04000 625.000
25.06000 630.000
25.08000 617.000
25.10000 625.000
25.12000 628.000
25.14000 610.000
25.16000 632.000
25.18000 593.000
25.20000 588.000
25.22000 605.000
25.24000 644.000
25.26000 637.000
25.28000 638.000
25.30000 643.000
25.32000 586.000
25.34000 612.000
25.36000 599.000
25.38000 607.000
25.40000 639.000
25.42000 622.000
25.44000 630.000
25.46000 622.000
25.48000 610.000
25.50000 592.000
25.52000 593.000
25.54000 604.000
25.56000 633.000
25.58000 611.000
25.60000 572.000
25.62000 643.000
25.64000 625.000
25.66000 616.000
25.68000 649.000
25.70000 579.000
25.72000 533.000
25.74000 615.000
25.76000 613.000
25.78000 646.000
25.80000 625.000
25.82000 610.000
25.84000 588.000
25.86000 629.000
25.88000 638.000
25.90000 607.000
25.92000 594.000
25.94000 639.000
25.96000 583.000
25.98000 591.000
26.00000 595.000
26.02000 620.000
26.04000 627.000
26.06000 611.000
26.08000 598.000
26.10000 616.000
26.12000 593.000
26.14000 604.000
26.16000 611.000
26.18000 594.000
26.20000 587.000
26.22000 582.000
26.24000 591.000
26.26000 621.000
26.28000 590.000
26.30000 606.000
26.32000 620.000
26.34000 601.000
26.36000 587.000
26.38000 635.000
26.40000 622.000
26.42000 593.000
26.44000 604.000
26.46000 587.000
26.48000 588.000
26.50000 602.000
26.52000 591.000
26.54000 589.000
26.56000 562.000
26.58000 580.000
26.60000 585.000
26.62000 594.000
26.64000 608.000
26.66000 612.000
26.68000 634.000
26.70000 566.000
26.72000 643.000
26.74000 566.000
26.76000 591.000
26.78000 632.000
26.80000 586.000
26.82000 609.000
26.84000 575.000
26.86000 593.000
26.88000 586.000
26.90000 593.000
26.92000 588.000
26.94000 577.000
26.96000 595.000
26.98000 617.000
27.00000 601.000
27.02000 633.000
27.04000 636.000
27.06000 612.000
27.08000 566.000
27.10000 638.000
27.12000 622.000
27.14000 604.000
27.16000 613.000
27.18000 635.000
27.20000 595.000
27.22000 640.000
27.24000 588.000
27.26000 647.000
27.28000 632.000
27.30000 618.000
27.32000 599.000
27.34000 608.000
27.36000 652.000
27.38000 641.000
27.40000 626.000
27.42000 636.000
27.44000 660.000
27.46000 626.000
27.48000 664.000
27.50000 658.000
27.52000 649.000
27.54000 690.000
27.56000 704.000
27.58000 687.000
27.60000 733.000
27.62000 740.000
27.64000 745.000
27.66000 739.000
27.68000 722.000
27.70000 754.000
27.72000 758.000
27.74000 840.000
27.76000 901.000
27.78000 1012.000
27.80000 1037.000
27.82000 1134.000
27.84000 1269.000
27.86000 1473.000
27.88000 1802.000
27.90000 2346.000
27.92000 3279.000
27.94000 4628.000
27.96000 6832.000
27.98000 9983.000
28.00000 12198.000
28.02000 11056.000
28.04000 8496.000
28.06000 7011.000
28.08000 6115.000
28.10000 4258.000
28.12000 2387.000
28.14000 1448.000
28.16000 1105.000
28.18000 950.000
28.20000 867.000
28.22000 805.000
28.24000 830.000
28.26000 803.000
28.28000 793.000
28.30000 742.000
28.32000 735.000
28.34000 717.000
28.36000 725.000
28.38000 715.000
28.40000 663.000
28.42000 714.000
28.44000 728.000
28.46000 696.000
28.48000 681.000
28.50000 653.000
28.52000 645.000
28.54000 659.000
28.56000 672.000
28.58000 723.000
28.60000 701.000
28.62000 710.000
28.64000 744.000
28.66000 769.000
28.68000 729.000
28.70000 735.000
28.72000 695.000
28.74000 706.000
28.76000 698.000
28.78000 655.000
28.80000 633.000
28.82000 623.000
28.84000 589.000
28.86000 584.000
28.88000 609.000
28.90000 606.000
28.92000 599.000
28.94000 572.000
28.96000 565.000
28.98000 573.000
29.00000 606.000
29.02000 576.000
29.04000 636.000
29.06000 582.000
29.08000 648.000
29.10000 607.000
29.12000 604.000
29.14000 569.000
29.16000 552.000
29.18000 611.000
29.20000 619.000
29.22000 591.000
29.24000 584.000
29.26000 604.000
29.28000 577.000
29.30000 623.000
29.32000 602.000
29.34000 629.000
29.36000 584.000
29.38000 585.000
29.40000 613.000
29.42000 583.000
29.44000 614.000
29.46000 620.000
29.48000 603.000
29.50000 638.000
29.52000 649.000
29.54000 673.000
29.56000 633.000
29.58000 612.000
29.60000 644.000
29.62000 668.000
29.64000 700.000
29.66000 674.000
29.68000 691.000
29.70000 676.000
29.72000 760.000
29.74000 746.000
29.76000 735.000
29.78000 842.000
29.80000 964.000
29.82000 1067.000
29.84000 1174.000
29.86000 1335.000
29.88000 1735.000
29.90000 2439.000
29.92000 3465.000
29.94000 4908.000
29.96000 6743.000
29.98000 7363.000
30.00000 6020.000
30.02000 4537.000
30.04000 4167.000
30.06000 3654.000
30.08000 2591.000
30.10000 1504.000
30.12000 1013.000
30.14000 805.000
30.16000 808.000
30.18000 735.000
30.20000 733.000
30.22000 671.000
30.24000 705.000
30.26000 661.000
30.28000 694.000
30.30000 682.000
30.32000 630.000
30.34000 669.000
30.36000 630.000
30.38000 642.000
30.40000 602.000
30.42000 621.000
30.44000 576.000
30.46000 602.000
30.48000 558.000
30.50000 588.000
30.52000 574.000
30.54000 577.000
30.56000 559.000
30.58000 558.000
30.60000 606.000
30.62000 572.000
30.64000 612.000
30.66000 524.000
30.68000 524.000
30.70000 520.000
30.72000 582.000
30.74000 537.000
30.76000 549.000
30.78000 569.000
30.80000 538.000
30.82000 575.000
30.84000 544.000
30.86000 512.000
30.88000 511.000
30.90000 548.000
30.92000 542.000
30.94000 521.000
30.96000 505.000
30.98000 522.000
31.00000 537.000
31.02000 547.000
31.04000 548.000
31.06000 540.000
31.08000 521.000
31.10000 531.000
31.12000 510.000
31.14000 542.000
31.16000 539.000
31.18000 504.000
31.20000 502.000
31.22000 532.000
31.24000 534.000
31.26000 503.000
31.28000 521.000
31.30000 548.000
31.32000 541.000
31.34000 570.000
31.36000 574.000
31.38000 540.000
31.40000 553.000
31.42000 539.000
31.44000 502.000
31.46000 517.000
31.48000 509.000
31.50000 497.000
31.52000 554.000
31.54000 552.000
31.56000 536.000
31.58000 544.000
31.60000 499.000
31.62000 495.000
31.64000 522.000
31.66000 509.000
31.68000 468.000
31.70000 500.000
31.72000 494.000
31.74000 524.000
31.76000 531.000
31.78000 512.000
31.80000 503.000
31.82000 517.000
31.84000 509.000
31.86000 507.000
31.88000 479.000
31.90000 543.000
31.92000 480.000
31.94000 462.000
31.96000 527.000
31.98000 500.000
32.00000 509.000
32.02000 501.000
32.04000 503.000
32.06000 511.000
32.08000 524.000
32.10000 512.000
32.12000 500.000
32.14000 484.000
32.16000 495.000
32.18000 496.000
32.20000 525.000
32.22000 519.000
32.24000 505.000
32.26000 545.000
32.28000 540.000
32.30000 539.000
32.32000 529.000
32.34000 511.000
32.36000 519.000
32.38000 511.000
32.40000 510.000
32.42000 568.000
32.44000 545.000
32.46000 590.000
32.48000 600.000
32.50000 611.000
32.52000 621.000
32.54000 542.000
32.56000 598.000
32.58000 590.000
32.60000 614.000
32.62000 615.000
32.64000 612.000
32.66000 616.000
32.68000 613.000
32.70000 624.000
32.72000 630.000
32.74000 609.000
32.76000 565.000
32.78000 630.000
32.80000 639.000
32.82000 636.000
32.84000 658.000
32.86000 632.000
32.88000 622.000
32.90000 644.000
32.92000 635.000
32.94000 645.000
32.96000 671.000
32.98000 688.000
33.00000 678.000
33.02000 716.000
33.04000 751.000
33.06000 730.000
33.08000 736.000
33.10000 798.000
33.12000 809.000
33.14000 868.000
33.16000 901.000
33.18000 943.000
33.20000 994.000
33.22000 974.000
33.24000 1030.000
33.26000 1087.000
33.28000 1169.000
33.30000 1236.000
33.32000 1283.000
33.34000 1420.000
33.36000 1580.000
33.38000 1787.000
33.40000 2016.000
33.42000 2367.000
33.44000 2730.000
33.46000 3427.000
33.48000 4522.000
33.50000 6456.000
33.52000 9648.000
33.54000 14853.000
33.56000 23166.000
33.58000 33147.000
33.60000 39165.000
33.62000 34977.000
33.64000 24740.000
33.66000 20614.000
33.68000 20920.000
33.70000 18181.000
33.72000 11280.000
33.74000 5687.000
33.76000 3218.000
33.78000 2243.000
33.80000 1900.000
33.82000 1641.000
33.84000 1408.000
33.86000 1288.000
33.88000 1202.000
33.90000 1162.000
33.92000 1100.000
33.94000 1076.000
33.96000 1010.000
33.98000 972.000
34.00000 933.000
34.02000 895.000
34.04000 831.000
34.06000 795.000
34.08000 744.000
34.10000 709.000
34.12000 681.000
34.14000 677.000
34.16000 684.000
34.18000 666.000
34.20000 665.000
34.22000 628.000
34.24000 627.000
34.26000 603.000
34.28000 624.000
34.30000 618.000
34.32000 560.000
34.34000 592.000
34.36000 612.000
34.38000 571.000
34.40000 609.000
34.42000 592.000
34.44000 587.000
34.46000 585.000
34.48000 552.000
34.50000 551.000
34.52000 572.000
34.54000 550.000
34.56000 543.000
34.58000 555.000
34.60000 561.000
34.62000 511.000
34.64000 527.000
34.66000 567.000
34.68000 532.000
34.70000 498.000
34.72000 546.000
34.74000 523.000
34.76000 526.000
34.78000 524.000
34.80000 526.000
34.82000 534.000
34.84000 537.000
34.86000 553.000
34.88000 566.000
34.90000 558.000
34.92000 534.000
34.94000 519.000
34.96000 531.000
34.98000 550.000
35.00000 529.000
35.02000 539.000
35.04000 526.000
35.06000 525.000
35.08000 561.000
35.10000 547.000
35.12000 511.000
35.14000 530.000
35.16000 616.000
35.18000 638.000
35.20000 700.000
35.22000 773.000
35.24000 954.000
35.26000 1115.000
35.28000 1328.000
35.30000 1342.000
35.32000 1094.000
35.34000 874.000
35.36000 855.000
35.38000 920.000
35.40000 845.000
35.42000 697.000
35.44000 579.000
35.46000 543.000
35.48000 515.000
35.50000 495.000
35.52000 498.000
35.54000 496.000
35.56000 497.000
35.58000 540.000
35.60000 521.000
35.62000 541.000
35.64000 517.000
35.66000 477.000
35.68000 484.000
35.70000 503.000
35.72000 477.000
35.74000 513.000
35.76000 527.000
35.78000 528.000
35.80000 517.000
35.82000 480.000
35.84000 486.000
35.86000 508.000
35.88000 529.000
35.90000 504.000
35.92000 540.000
35.94000 484.000
35.96000 502.000
35.98000 511.000
36.00000 511.000
36.02000 510.000
36.04000 517.000
36.06000 489.000
36.08000 511.000
36.10000 485.000
36.12000 513.000
36.14000 506.000
36.16000 500.000
36.18000 522.000
36.20000 560.000
36.22000 478.000
36.24000 512.000
36.26000 517.000
36.28000 536.000
36.30000 523.000
36.32000 521.000
36.34000 515.000
36.36000 494.000
36.38000 528.000
36.40000 526.000
36.42000 493.000
36.44000 529.000
36.46000 525.000
36.48000 581.000
36.50000 542.000
36.52000 555.000
36.54000 575.000
36.56000 613.000
36.58000 576.000
36.60000 617.000
36.62000 670.000
36.64000 653.000
36.66000 664.000
36.68000 742.000
36.70000 741.000
36.72000 807.000
36.74000 881.000
36.76000 1001.000
36.78000 1121.000
36.80000 1473.000
36.82000 2088.000
36.84000 3057.000
36.86000 4600.000
36.88000 6575.000
36.90000 8326.000
36.92000 8300.000
36.94000 6371.000
36.96000 4729.000
36.98000 4572.000
37.00000 4683.000
37.02000 4094.000
37.04000 2635.000
37.06000 1534.000
37.08000 1085.000
37.10000 837.000
37.12000 746.000
37.14000 655.000
37.16000 638.000
37.18000 636.000
37.20000 644.000
37.22000 628.000
37.24000 574.000
37.26000 576.000
37.28000 567.000
37.30000 588.000
37.32000 599.000
37.34000 529.000
37.36000 545.000
37.38000 522.000
37.40000 490.000
37.42000 491.000
37.44000 493.000
37.46000 503.000
37.48000 503.000
37.50000 457.000
37.52000 469.000
37.54000 482.000
37.56000 475.000
37.58000 486.000
37.60000 486.000
37.62000 501.000
37.64000 471.000
37.66000 465.000
37.68000 488.000
37.70000 495.000
37.72000 468.000
37.74000 461.000
37.76000 468.000
37.78000 461.000
37.80000 504.000
37.82000 466.000
37.84000 488.000
37.86000 475.000
37.88000 437.000
37.90000 466.000
37.92000 468.000
37.94000 456.000
37.96000 481.000
37.98000 454.000
38.00000 480.000
38.02000 457.000
38.04000 486.000
38.06000 440.000
38.08000 445.000
38.10000 490.000
38.12000 450.000
38.14000 468.000
38.16000 448.000
38.18000 451.000
38.20000 487.000
38.22000 500.000
38.24000 505.000
38.26000 502.000
38.28000 481.000
38.30000 488.000
38.32000 519.000
38.34000 527.000
38.36000 581.000
38.38000 644.000
38.40000 744.000
38.42000 955.000
38.44000 1246.000
38.46000 1506.000
38.48000 1560.000
38.50000 1275.000
38.52000 981.000
38.54000 921.000
38.56000 970.000
38.58000 1012.000
38.60000 846.000
38.62000 641.000
38.64000 539.000
38.66000 484.000
38.68000 494.000
38.70000 450.000
38.72000 444.000
38.74000 457.000
38.76000 501.000
38.78000 488.000
38.80000 450.000
38.82000 450.000
38.84000 455.000
38.86000 457.000
38.88000 477.000
38.90000 436.000
38.92000 477.000
38.94000 446.000
38.96000 442.000
38.98000 454.000
39.00000 453.000
39.02000 413.000
39.04000 426.000
39.06000 477.000
39.08000 455.000
39.10000 432.000
39.12000 426.000
39.14000 449.000
39.16000 450.000
39.18000 449.000
39.20000 423.000
39.22000 445.000
39.24000 464.000
39.26000 424.000
39.28000 414.000
39.30000 444.000
39.32000 451.000
39.34000 473.000
39.36000 462.000
39.38000 446.000
39.40000 476.000
39.42000 440.000
39.44000 436.000
39.46000 479.000
39.48000 406.000
39.50000 423.000
39.52000 446.000
39.54000 453.000
39.56000 469.000
39.58000 439.000
39.60000 424.000
39.62000 488.000
39.64000 436.000
39.66000 428.000
39.68000 417.000
39.70000 430.000
39.72000 424.000
39.74000 417.000
39.76000 473.000
39.78000 428.000
39.80000 427.000
39.82000 463.000
39.84000 441.000
39.86000 453.000
39.88000 441.000
39.90000 433.000
39.92000 437.000
39.94000 462.000
39.96000 453.000
39.98000 453.000
40.00000 452.000
40.02000 459.000
40.04000 451.000
40.06000 459.000
40.08000 453.000
40.10000 445.000
40.12000 442.000
40.14000 446.000
40.16000 443.000
40.18000 440.000
40.20000 450.000
40.22000 458.000
40.24000 457.000
40.26000 461.000
40.28000 471.000
40.30000 435.000
40.32000 458.000
40.34000 467.000
40.36000 483.000
40.38000 447.000
40.40000 445.000
40.42000 452.000
40.44000 464.000
40.46000 443.000
40.48000 442.000
40.50000 459.000
40.52000 448.000
40.54000 480.000
40.56000 446.000
40.58000 467.000
40.60000 445.000
40.62000 455.000
40.64000 448.000
40.66000 488.000
40.68000 494.000
40.70000 448.000
40.72000 466.000
40.74000 505.000
40.76000 479.000
40.78000 465.000
40.80000 485.000
40.82000 462.000
40.84000 503.000
40.86000 456.000
40.88000 488.000
40.90000 477.000
40.92000 489.000
40.94000 522.000
40.96000 497.000
40.98000 496.000
41.00000 489.000
41.02000 519.000
41.04000 563.000
41.06000 533.000
41.08000 524.000
41.10000 594.000
41.12000 557.000
41.14000 576.000
41.16000 631.000
41.18000 721.000
41.20000 712.000
41.22000 758.000
41.24000 804.000
41.26000 906.000
41.28000 985.000
41.30000 1145.000
41.32000 1375.000
41.34000 1890.000
41.36000 2778.000
41.38000 4286.000
41.40000 6435.000
41.42000 8985.000
41.44000 10989.000
41.46000 10203.000
41.48000 7188.000
41.50000 5131.000
41.52000 5246.000
41.54000 5946.000
41.56000 5685.000
41.58000 4093.000
41.60000 2372.000
41.62000 1399.000
41.64000 1068.000
41.66000 860.000
41.68000 758.000
41.70000 719.000
41.72000 645.000
41.74000 661.000
41.76000 644.000
41.78000 600.000
41.80000 570.000
41.82000 566.000
41.84000 546.000
41.86000 531.000
41.88000 556.000
41.90000 521.000
41.92000 525.000
41.94000 519.000
41.96000 505.000
41.98000 511.000
42.00000 517.000
42.02000 468.000
42.04000 413.000
42.06000 472.000
42.08000 490.000
42.10000 483.000
42.12000 469.000
42.14000 494.000
42.16000 513.000
42.18000 466.000
42.20000 461.000
42.22000 469.000
42.24000 437.000
42.26000 437.000
42.28000 455.000
42.30000 467.000
42.32000 467.000
42.34000 450.000
42.36000 474.000
42.38000 468.000
42.40000 482.000
42.42000 502.000
42.44000 480.000
42.46000 456.000
42.48000 474.000
42.50000 487.000
42.52000 432.000
42.54000 441.000
42.56000 474.000
42.58000 482.000
42.60000 464.000
42.62000 539.000
42.64000 536.000
42.66000 521.000
42.68000 525.000
42.70000 536.000
42.72000 609.000
42.74000 649.000
42.76000 737.000
42.78000 967.000
42.80000 1272.000
42.82000 1765.000
42.84000 2462.000
42.86000 2939.000
42.88000 2794.000
42.90000 2041.000
42.92000 1496.000
42.94000 1476.000
42.96000 1595.000
42.98000 1610.000
43.00000 1437.000
43.02000 980.000
43.04000 729.000
43.06000 600.000
43.08000 556.000
43.10000 491.000
43.12000 480.000
43.14000 478.000
43.16000 495.000
43.18000 469.000
43.20000 500.000
43.22000 437.000
43.24000 496.000
43.26000 500.000
43.28000 474.000
43.30000 457.000
43.32000 454.000
43.34000 443.000
43.36000 454.000
43.38000 466.000
43.40000 493.000
43.42000 473.000
43.44000 430.000
43.46000 458.000
43.48000 412.000
43.50000 446.000
43.52000 476.000
43.54000 439.000
43.56000 433.000
43.58000 425.000
43.60000 431.000
43.62000 474.000
43.64000 442.000
43.66000 457.000
43.68000 427.000
43.70000 436.000
43.72000 438.000
43.74000 423.000
43.76000 429.000
43.78000 404.000
43.80000 453.000
43.82000 426.000
43.84000 381.000
43.86000 396.000
43.88000 395.000
43.90000 419.000
43.92000 396.000
43.94000 415.000
43.96000 404.000
43.98000 417.000
44.00000 414.000
44.02000 425.000
44.04000 422.000
44.06000 407.000
44.08000 417.000
44.10000 433.000
44.12000 392.000
44.14000 401.000
44.16000 455.000
44.18000 438.000
44.20000 413.000
44.22000 417.000
44.24000 419.000
44.26000 416.000
44.28000 427.000
44.30000 414.000
44.32000 408.000
44.34000 390.000
44.36000 445.000
44.38000 427.000
44.40000 418.000
44.42000 422.000
44.44000 421.000
44.46000 417.000
44.48000 448.000
44.50000 392.000
44.52000 417.000
44.54000 428.000
44.56000 409.000
44.58000 417.000
44.60000 411.000
44.62000 408.000
44.64000 440.000
44.66000 410.000
44.68000 419.000
44.70000 414.000
44.72000 416.000
44.74000 431.000
44.76000 388.000
44.78000 421.000
44.80000 430.000
44.82000 413.000
44.84000 389.000
44.86000 401.000
44.88000 426.000
44.90000 432.000
44.92000 380.000
44.94000 414.000
44.96000 399.000
44.98000 397.000
45.00000 392.000
45.02000 420.000
45.04000 446.000
45.06000 391.000
45.08000 437.000
45.10000 393.000
45.12000 389.000
45.14000 392.000
45.16000 392.000
45.18000 390.000
45.20000 418.000
45.22000 431.000
45.24000 426.000
45.26000 402.000
45.28000 429.000
45.30000 456.000
45.32000 438.000
45.34000 460.000
45.36000 420.000
45.38000 426.000
45.40000 404.000
45.42000 441.000
45.44000 476.000
45.46000 433.000
45.48000 424.000
45.50000 437.000
45.52000 453.000
45.54000 439.000
45.56000 452.000
45.58000 419.000
45.60000 409.000
45.62000 407.000
45.64000 422.000
45.66000 433.000
45.68000 418.000
45.70000 437.000
45.72000 421.000
45.74000 465.000
45.76000 451.000
45.78000 442.000
45.80000 454.000
45.82000 384.000
45.84000 430.000
45.86000 420.000
45.88000 405.000
45.90000 401.000
45.92000 421.000
45.94000 436.000
45.96000 439.000
45.98000 423.000
46.00000 430.000
46.02000 439.000
46.04000 430.000
46.06000 432.000
46.08000 415.000
46.10000 434.000
46.12000 445.000
46.14000 462.000
46.16000 417.000
46.18000 445.000
46.20000 468.000
46.22000 470.000
46.24000 457.000
46.26000 439.000
46.28000 463.000
46.30000 464.000
46.32000 473.000
46.34000 457.000
46.36000 470.000
46.38000 445.000
46.40000 449.000
46.42000 459.000
46.44000 505.000
46.46000 513.000
46.48000 524.000
46.50000 569.000
46.52000 504.000
46.54000 546.000
46.56000 575.000
46.58000 575.000
46.60000 570.000
46.62000 621.000
46.64000 638.000
46.66000 725.000
46.68000 751.000
46.70000 808.000
46.72000 826.000
46.74000 882.000
46.76000 930.000
46.78000 1147.000
46.80000 1443.000
46.82000 1980.000
46.84000 3065.000
46.86000 4709.000
46.88000 7098.000
46.90000 10248.000
46.92000 12441.000
46.94000 11020.000
46.96000 7302.000
46.98000 4851.000
47.00000 4632.000
47.02000 5708.000
47.04000 6782.000
47.06000 6060.000
47.08000 3942.000
47.10000 2204.000
47.12000 1401.000
47.14000 1041.000
47.16000 876.000
47.18000 802.000
47.20000 739.000
47.22000 692.000
47.24000 687.000
47.26000 615.000
47.28000 612.000
47.30000 610.000
47.32000 587.000
47.34000 560.000
47.36000 513.000
47.38000 543.000
47.40000 527.000
47.42000 540.000
47.44000 527.000
47.46000 546.000
47.48000 527.000
47.50000 529.000
47.52000 514.000
47.54000 531.000
47.56000 519.000
47.58000 529.000
47.60000 531.000
47.62000 522.000
47.64000 539.000
47.66000 550.000
47.68000 525.000
47.70000 548.000
47.72000 529.000
47.74000 476.000
47.76000 466.000
47.78000 463.000
47.80000 519.000
47.82000 450.000
47.84000 492.000
47.86000 451.000
47.88000 430.000
47.90000 463.000
47.92000 451.000
47.94000 424.000
47.96000 450.000
47.98000 471.000
48.00000 451.000
48.02000 462.000
48.04000 492.000
48.06000 483.000
48.08000 463.000
48.10000 479.000
48.12000 570.000
48.14000 632.000
48.16000 761.000
48.18000 971.000
48.20000 1185.000
48.22000 1210.000
48.24000 1022.000
48.26000 789.000
48.28000 714.000
48.30000 763.000
48.32000 808.000
48.34000 826.000
48.36000 738.000
48.38000 653.000
48.40000 541.000
48.42000 490.000
48.44000 461.000
48.46000 454.000
48.48000 436.000
48.50000 459.000
48.52000 451.000
48.54000 425.000
48.56000 409.000
48.58000 429.000
48.60000 433.000
48.62000 453.000
48.64000 426.000
48.66000 446.000
48.68000 391.000
48.70000 421.000
48.72000 392.000
48.74000 402.000
48.76000 389.000
48.78000 408.000
48.80000 432.000
48.82000 413.000
48.84000 412.000
48.86000 428.000
48.88000 387.000
48.90000 391.000
48.92000 406.000
48.94000 414.000
48.96000 407.000
48.98000 398.000
49.00000 400.000
49.02000 413.000
49.04000 395.000
49.06000 377.000
49.08000 405.000
49.10000 429.000
49.12000 425.000
49.14000 407.000
49.16000 396.000
49.18000 428.000
49.20000 390.000
49.22000 412.000
49.24000 441.000
49.26000 426.000
49.28000 416.000
49.30000 393.000
49.32000 389.000
49.34000 432.000
49.36000 414.000
49.38000 422.000
49.40000 401.000
49.42000 425.000
49.44000 432.000
49.46000 461.000
49.48000 436.000
49.50000 411.000
49.52000 457.000
49.54000 410.000
49.56000 427.000
49.58000 410.000
49.60000 428.000
49.62000 427.000
49.64000 412.000
49.66000 390.000
49.68000 386.000
49.70000 385.000
49.72000 401.000
49.74000 429.000
49.76000 425.000
49.78000 406.000
49.80000 404.000
49.82000 400.000
49.84000 408.000
49.86000 425.000
49.88000 428.000
49.90000 382.000
49.92000 412.000
49.94000 400.000
49.96000 386.000
49.98000 357.000
50.00000 416.000
50.02000 398.000
50.04000 417.000
50.06000 398.000
50.08000 408.000
50.10000 397.000
50.12000 415.000
50.14000 414.000
50.16000 422.000
50.18000 429.000
50.20000 418.000
50.22000 429.000
50.24000 405.000
50.26000 399.000
50.28000 373.000
50.30000 405.000
50.32000 402.000
50.34000 458.000
50.36000 420.000
50.38000 427.000
50.40000 411.000
50.42000 426.000
50.44000 432.000
50.46000 421.000
50.48000 400.000
50.50000 402.000
50.52000 390.000
50.54000 398.000
50.56000 434.000
50.58000 424.000
50.60000 385.000
50.62000 394.000
50.64000 391.000
50.66000 391.000
50.68000 402.000
50.70000 410.000
50.72000 391.000
50.74000 433.000
50.76000 460.000
50.78000 391.000
50.80000 420.000
50.82000 428.000
50.84000 419.000
50.86000 427.000
50.88000 411.000
50.90000 430.000
50.92000 423.000
50.94000 429.000
50.96000 409.000
50.98000 406.000
51.00000 387.000
51.02000 420.000
51.04000 428.000
51.06000 405.000
51.08000 405.000
51.10000 422.000
51.12000 412.000
51.14000 401.000
51.16000 405.000
51.18000 414.000
51.20000 406.000
51.22000 413.000
51.24000 442.000
51.26000 450.000
51.28000 407.000
51.30000 429.000
51.32000 415.000
51.34000 421.000
51.36000 430.000
51.38000 417.000
51.40000 453.000
51.42000 477.000
51.44000 398.000
51.46000 411.000
51.48000 427.000
51.50000 437.000
51.52000 455.000
51.54000 478.000
51.56000 467.000
51.58000 426.000
51.60000 451.000
51.62000 471.000
51.64000 465.000
51.66000 503.000
51.68000 476.000
51.70000 496.000
51.72000 493.000
51.74000 512.000
51.76000 479.000
51.78000 523.000
51.80000 548.000
51.82000 557.000
51.84000 648.000
51.86000 803.000
51.88000 1088.000
51.90000 1543.000
51.92000 2092.000
51.94000 2590.000
51.96000 2456.000
51.98000 1807.000
52.00000 1272.000
52.02000 1069.000
52.04000 1100.000
52.06000 1398.000
52.08000 1595.000
52.10000 1428.000
52.12000 1137.000
52.14000 814.000
52.16000 616.000
52.18000 528.000
52.20000 515.000
52.22000 458.000
52.24000 473.000
52.26000 477.000
52.28000 447.000
52.30000 430.000
52.32000 481.000
52.34000 443.000
52.36000 473.000
52.38000 478.000
52.40000 501.000
52.42000 487.000
52.44000 487.000
52.46000 487.000
52.48000 481.000
52.50000 485.000
52.52000 471.000
52.54000 414.000
52.56000 442.000
52.58000 506.000
52.60000 496.000
52.62000 494.000
52.64000 481.000
52.66000 481.000
52.68000 474.000
52.70000 500.000
52.72000 513.000
52.74000 517.000
52.76000 470.000
52.78000 488.000
52.80000 540.000
52.82000 556.000
52.84000 534.000
52.86000 626.000
52.88000 588.000
52.90000 649.000
52.92000 682.000
52.94000 696.000
52.96000 713.000
52.98000 758.000
53.00000 894.000
53.02000 1029.000
53.04000 1287.000
53.06000 1773.000
53.08000 2828.000
53.10000 4507.000
53.12000 6616.000
53.14000 8490.000
53.16000 8511.000
53.18000 6049.000
53.20000 3855.000
53.22000 2815.000
53.24000 3001.000
53.26000 3714.000
53.28000 4539.000
53.30000 4637.000
53.32000 3534.000
53.34000 2213.000
53.36000 1361.000
53.38000 988.000
53.40000 826.000
53.42000 702.000
53.44000 641.000
53.46000 645.000
53.48000 634.000
53.50000 657.000
53.52000 562.000
53.54000 586.000
53.56000 553.000
53.58000 543.000
53.60000 519.000
53.62000 489.000
53.64000 510.000
53.66000 558.000
53.68000 473.000
53.70000 521.000
53.72000 480.000
53.74000 441.000
53.76000 445.000
53.78000 474.000
53.80000 467.000
53.82000 469.000
53.84000 470.000
53.86000 487.000
53.88000 492.000
53.90000 466.000
53.92000 471.000
53.94000 434.000
53.96000 490.000
53.98000 474.000
54.00000 445.000
54.02000 429.000
54.04000 453.000
54.06000 454.000
54.08000 437.000
54.10000 447.000
54.12000 455.000
54.14000 435.000
54.16000 450.000
54.18000 441.000
54.20000 449.000
54.22000 456.000
54.24000 434.000
54.26000 434.000
54.28000 470.000
54.30000 508.000
54.32000 481.000
54.34000 490.000
54.36000 463.000
54.38000 487.000
54.40000 459.000
54.42000 415.000
54.44000 447.000
54.46000 459.000
54.48000 487.000
54.50000 441.000
54.52000 441.000
54.54000 461.000
54.56000 465.000
54.58000 422.000
54.60000 455.000
54.62000 476.000
54.64000 471.000
54.66000 445.000
54.68000 473.000
54.70000 472.000
54.72000 465.000
54.74000 473.000
54.76000 468.000
54.78000 488.000
54.80000 490.000
54.82000 454.000
54.84000 477.000
54.86000 458.000
54.88000 489.000
54.90000 498.000
54.92000 521.000
54.94000 503.000
54.96000 506.000
54.98000 514.000
55.00000 550.000
55.02000 525.000
55.04000 583.000
55.06000 554.000
55.08000 548.000
55.10000 558.000
55.12000 629.000
55.14000 622.000
55.16000 647.000
55.18000 693.000
55.20000 762.000
55.22000 741.000
55.24000 831.000
55.26000 825.000
55.28000 913.000
55.30000 888.000
55.32000 932.000
55.34000 1013.000
55.36000 1281.000
55.38000 1614.000
55.40000 2287.000
55.42000 3623.000
55.44000 5819.000
55.46000 8755.000
55.48000 12494.000
55.50000 14130.000
55.52000 11683.000
55.54000 7374.000
55.56000 4639.000
55.58000 3993.000
55.60000 4590.000
55.62000 6053.000
55.64000 7427.000
55.66000 7033.000
55.68000 5029.000
55.70000 2969.000
55.72000 1828.000
55.74000 1347.000
55.76000 1098.000
55.78000 954.000
55.80000 903.000
55.82000 845.000
55.84000 806.000
55.86000 741.000
55.88000 690.000
55.90000 692.000
55.92000 622.000
55.94000 637.000
55.96000 672.000
55.98000 603.000
56.00000 585.000
56.02000 562.000
56.04000 595.000
56.06000 572.000
56.08000 557.000
56.10000 561.000
56.12000 555.000
56.14000 541.000
56.16000 507.000
56.18000 559.000
56.20000 565.000
56.22000 574.000
56.24000 540.000
56.26000 554.000
56.28000 579.000
56.30000 601.000
56.32000 621.000
56.34000 587.000
56.36000 618.000
56.38000 669.000
56.40000 648.000
56.42000 661.000
56.44000 661.000
56.46000 687.000
56.48000 747.000
56.50000 754.000
56.52000 891.000
56.54000 1039.000
56.56000 1383.000
56.58000 2043.000
56.60000 3132.000
56.62000 4517.000
56.64000 5577.000
56.66000 5348.000
56.68000 3860.000
56.70000 2492.000
56.72000 1820.000
56.74000 1843.000
56.76000 2249.000
56.78000 2869.000
56.80000 3071.000
56.82000 2694.000
56.84000 1946.000
56.86000 1297.000
56.88000 906.000
56.90000 806.000
56.92000 676.000
56.94000 658.000
56.96000 598.000
56.98000 568.000
57.00000 568.000
57.02000 559.000
57.04000 615.000
57.06000 541.000
57.08000 530.000
57.10000 540.000
57.12000 533.000
57.14000 507.000
57.16000 515.000
57.18000 538.000
57.20000 536.000
57.22000 522.000
57.24000 517.000
57.26000 529.000
57.28000 530.000
57.30000 514.000
57.32000 545.000
57.34000 552.000
57.36000 582.000
57.38000 576.000
57.40000 553.000
57.42000 609.000
57.44000 606.000
57.46000 654.000
57.48000 700.000
57.50000 758.000
57.52000 752.000
57.54000 766.000
57.56000 819.000
57.58000 786.000
57.60000 836.000
57.62000 892.000
57.64000 1045.000
57.66000 1272.000
57.68000 1676.000
57.70000 2413.000
57.72000 3788.000
57.74000 6063.000
57.76000 8802.000
57.78000 10414.000
57.80000 9570.000
57.82000 6332.000
57.84000 3771.000
57.86000 2897.000
57.88000 3011.000
57.90000 3883.000
57.92000 5047.000
57.94000 5738.000
57.96000 4958.000
57.98000 3233.000
58.00000 1928.000
58.02000 1304.000
58.04000 1056.000
58.06000 841.000
58.08000 792.000
58.10000 726.000
58.12000 688.000
58.14000 661.000
58.16000 634.000
58.18000 615.000
58.20000 626.000
58.22000 547.000
58.24000 532.000
58.26000 518.000
58.28000 526.000
58.30000 538.000
58.32000 532.000
58.34000 495.000
58.36000 482.000
58.38000 510.000
58.40000 501.000
58.42000 472.000
58.44000 479.000
58.46000 480.000
58.48000 464.000
58.50000 493.000
58.52000 485.000
58.54000 436.000
58.56000 429.000
58.58000 458.000
58.60000 426.000
58.62000 443.000
58.64000 448.000
58.66000 478.000
58.68000 439.000
58.70000 449.000
58.72000 454.000
58.74000 480.000
58.76000 449.000
58.78000 456.000
58.80000 440.000
58.82000 448.000
58.84000 430.000
58.86000 438.000
58.88000 460.000
58.90000 469.000
58.92000 440.000
58.94000 453.000
58.96000 435.000
58.98000 424.000
59.00000 420.000
59.02000 430.000
59.04000 431.000
59.06000 419.000
59.08000 392.000
59.10000 467.000
59.12000 459.000
59.14000 461.000
59.16000 448.000
59.18000 472.000
59.20000 423.000
59.22000 417.000
59.24000 436.000
59.26000 431.000
59.28000 402.000
59.30000 417.000
59.32000 425.000
59.34000 427.000
59.36000 413.000
59.38000 414.000
59.40000 447.000
59.42000 465.000
59.44000 446.000
59.46000 429.000
59.48000 462.000
59.50000 413.000
59.52000 405.000
59.54000 395.000
59.56000 422.000
59.58000 391.000
59.60000 394.000
59.62000 443.000
59.64000 420.000
59.66000 434.000
59.68000 422.000
59.70000 445.000
59.72000 456.000
59.74000 440.000
59.76000 441.000
59.78000 392.000
59.80000 404.000
59.82000 448.000
59.84000 438.000
59.86000 429.000
59.88000 422.000
59.90000 471.000
59.92000 436.000
59.94000 427.000
59.96000 410.000
59.98000 417.000
60.00000 430.000
60.02000 428.000
60.04000 428.000
60.06000 428.000
60.08000 434.000
60.10000 450.000
60.12000 427.000
60.14000 435.000
60.16000 394.000
60.18000 420.000
60.20000 423.000
60.22000 416.000
60.24000 447.000
60.26000 429.000
60.28000 397.000
60.30000 417.000
60.32000 417.000
60.34000 435.000
60.36000 409.000
60.38000 423.000
60.40000 420.000
60.42000 474.000
60.44000 443.000
60.46000 424.000
60.48000 441.000
60.50000 411.000
60.52000 395.000
60.54000 437.000
60.56000 423.000
60.58000 416.000
60.60000 439.000
60.62000 425.000
60.64000 431.000
60.66000 482.000
60.68000 437.000
60.70000 421.000
60.72000 488.000
60.74000 469.000
60.76000 497.000
60.78000 483.000
60.80000 510.000
60.82000 508.000
60.84000 503.000
60.86000 505.000
60.88000 508.000
60.90000 498.000
60.92000 553.000
60.94000 582.000
60.96000 616.000
60.98000 647.000
61.00000 742.000
61.02000 963.000
61.04000 1321.000
61.06000 1920.000
61.08000 2739.000
61.10000 3467.000
61.12000 3281.000
61.14000 2431.000
61.16000 1597.000
61.18000 1213.000
61.20000 1065.000
61.22000 1204.000
61.24000 1617.000
61.26000 1978.000
61.28000 2043.000
61.30000 1751.000
61.32000 1274.000
61.34000 839.000
61.36000 661.000
61.38000 597.000
61.40000 578.000
61.42000 525.000
61.44000 508.000
61.46000 483.000
61.48000 464.000
61.50000 499.000
61.52000 476.000
61.54000 469.000
61.56000 451.000
61.58000 458.000
61.60000 481.000
61.62000 480.000
61.64000 443.000
61.66000 445.000
61.68000 500.000
61.70000 493.000
61.72000 502.000
61.74000 466.000
61.76000 442.000
61.78000 467.000
61.80000 476.000
61.82000 497.000
61.84000 506.000
61.86000 572.000
61.88000 536.000
61.90000 569.000
61.92000 576.000
61.94000 558.000
61.96000 560.000
61.98000 559.000
62.00000 606.000
62.02000 652.000
62.04000 652.000
62.06000 777.000
62.08000 935.000
62.10000 1137.000
62.12000 1653.000
62.14000 2514.000
62.16000 3687.000
62.18000 4808.000
62.20000 4926.000
62.22000 3731.000
62.24000 2321.000
62.26000 1606.000
62.28000 1343.000
62.30000 1532.000
62.32000 1892.000
62.34000 2462.000
62.36000 2700.000
62.38000 2516.000
62.40000 1801.000
62.42000 1151.000
62.44000 858.000
62.46000 753.000
62.48000 653.000
62.50000 578.000
62.52000 532.000
62.54000 524.000
62.56000 514.000
62.58000 506.000
62.60000 529.000
62.62000 503.000
62.64000 448.000
62.66000 430.000
62.68000 452.000
62.70000 467.000
62.72000 476.000
62.74000 465.000
62.76000 458.000
62.78000 419.000
62.80000 436.000
62.82000 436.000
62.84000 404.000
62.86000 444.000
62.88000 410.000
62.90000 446.000
62.92000 419.000
62.94000 434.000
62.96000 443.000
62.98000 460.000
63.00000 429.000
63.02000 404.000
63.04000 407.000
63.06000 404.000
63.08000 431.000
63.10000 435.000
63.12000 389.000
63.14000 440.000
63.16000 413.000
63.18000 428.000
63.20000 439.000
63.22000 465.000
63.24000 465.000
63.26000 477.000
63.28000 477.000
63.30000 450.000
63.32000 437.000
63.34000 405.000
63.36000 407.000
63.38000 448.000
63.40000 455.000
63.42000 461.000
63.44000 451.000
63.46000 425.000
63.48000 414.000
63.50000 434.000
63.52000 418.000
63.54000 424.000
63.56000 409.000
63.58000 398.000
63.60000 409.000
63.62000 410.000
63.64000 425.000
63.66000 416.000
63.68000 420.000
63.70000 406.000
63.72000 403.000
63.74000 381.000
63.76000 385.000
63.78000 400.000
63.80000 423.000
63.82000 425.000
63.84000 401.000
63.86000 373.000
63.88000 411.000
63.90000 430.000
63.92000 443.000
63.94000 420.000
63.96000 384.000
63.98000 416.000
64.00000 382.000
64.02000 420.000
64.04000 413.000
64.06000 434.000
64.08000 430.000
64.10000 426.000
64.12000 387.000
64.14000 347.000
64.16000 399.000
64.18000 427.000
64.20000 415.000
64.22000 408.000
64.24000 404.000
64.26000 426.000
64.28000 423.000
64.30000 460.000
64.32000 478.000
64.34000 457.000
64.36000 417.000
64.38000 453.000
64.40000 396.000
64.42000 412.000
64.44000 427.000
64.46000 406.000
64.48000 420.000
64.50000 426.000
64.52000 439.000
64.54000 423.000
64.56000 419.000
64.58000 412.000
64.60000 434.000
64.62000 401.000
64.64000 430.000
64.66000 439.000
64.68000 408.000
64.70000 429.000
64.72000 398.000
64.74000 411.000
64.76000 400.000
64.78000 421.000
64.80000 399.000
64.82000 399.000
64.84000 392.000
64.86000 421.000
64.88000 414.000
64.90000 399.000
64.92000 413.000
64.94000 416.000
64.96000 405.000
64.98000 409.000
65.00000 402.000
65.02000 393.000
65.04000 386.000
65.06000 420.000
65.08000 427.000
65.10000 425.000
65.12000 410.000
65.14000 428.000
65.16000 412.000
65.18000 427.000
65.20000 434.000
65.22000 447.000
65.24000 424.000
65.26000 474.000
65.28000 513.000
65.30000 596.000
65.32000 676.000
65.34000 889.000
65.36000 1156.000
65.38000 1333.000
65.40000 1183.000
65.42000 899.000
65.44000 717.000
65.46000 589.000
65.48000 571.000
65.50000 599.000
65.52000 677.000
65.54000 774.000
65.56000 819.000
65.58000 832.000
65.60000 697.000
65.62000 558.000
65.64000 521.000
65.66000 428.000
65.68000 424.000
65.70000 410.000
65.72000 446.000
65.74000 419.000
65.76000 421.000
65.78000 443.000
65.80000 418.000
65.82000 414.000
65.84000 392.000
65.86000 383.000
65.88000 378.000
65.90000 424.000
65.92000 399.000
65.94000 388.000
65.96000 391.000
65.98000 416.000
66.00000 391.000
66.02000 399.000
66.04000 419.000
66.06000 426.000
66.08000 435.000
66.10000 411.000
66.12000 404.000
66.14000 417.000
66.16000 420.000
66.18000 408.000
66.20000 398.000
66.22000 421.000
66.24000 412.000
66.26000 431.000
66.28000 452.000
66.30000 459.000
66.32000 462.000
66.34000 555.000
66.36000 655.000
66.38000 834.000
66.40000 1016.000
66.42000 1238.000
66.44000 1165.000
66.46000 895.000
66.48000 650.000
66.50000 587.000
66.52000 556.000
66.54000 525.000
66.56000 626.000
66.58000 687.000
66.60000 804.000
66.62000 780.000
66.64000 670.000
66.66000 584.000
66.68000 503.000
66.70000 465.000
66.72000 429.000
66.74000 448.000
66.76000 415.000
66.78000 406.000
66.80000 395.000
66.82000 390.000
66.84000 406.000
66.86000 413.000
66.88000 413.000
66.90000 430.000
66.92000 404.000
66.94000 366.000
66.96000 393.000
66.98000 390.000
67.00000 385.000
67.02000 355.000
67.04000 411.000
67.06000 405.000
67.08000 397.000
67.10000 407.000
67.12000 403.000
67.14000 372.000
67.16000 381.000
67.18000 389.000
67.20000 392.000
67.22000 415.000
67.24000 389.000
67.26000 366.000
67.28000 375.000
67.30000 380.000
67.32000 406.000
67.34000 420.000
67.36000 380.000
67.38000 371.000
67.40000 379.000
67.42000 410.000
67.44000 409.000
67.46000 426.000
67.48000 435.000
67.50000 428.000
67.52000 366.000
67.54000 402.000
67.56000 368.000
67.58000 401.000
67.60000 417.000
67.62000 388.000
67.64000 420.000
67.66000 444.000
67.68000 386.000
67.70000 409.000
67.72000 391.000
67.74000 362.000
67.76000 393.000
67.78000 397.000
67.80000 377.000
67.82000 379.000
67.84000 353.000
67.86000 369.000
67.88000 390.000
67.90000 365.000
67.92000 370.000
67.94000 386.000
67.96000 407.000
67.98000 392.000
68.00000 403.000
68.02000 371.000
68.04000 418.000
68.06000 397.000
68.08000 409.000
68.10000 393.000
68.12000 390.000
68.14000 365.000
68.16000 374.000
68.18000 395.000
68.20000 388.000
68.22000 428.000
68.24000 406.000
68.26000 383.000
68.28000 379.000
68.30000 388.000
68.32000 346.000
68.34000 388.000
68.36000 420.000
68.38000 407.000
68.40000 423.000
68.42000 414.000
68.44000 386.000
68.46000 368.000
68.48000 412.000
68.50000 399.000
68.52000 391.000
68.54000 395.000
68.56000 395.000
68.58000 388.000
68.60000 376.000
68.62000 381.000
68.64000 390.000
68.66000 366.000
68.68000 381.000
68.70000 379.000
68.72000 382.000
68.74000 382.000
68.76000 386.000
68.78000 399.000
68.80000 384.000
68.82000 393.000
68.84000 360.000
68.86000 412.000
68.88000 406.000
68.90000 379.000
68.92000 381.000
68.94000 410.000
68.96000 397.000
68.98000 370.000
69.00000 395.000
69.02000 341.000
69.04000 395.000
69.06000 383.000
69.08000 364.000
69.10000 359.000
69.12000 369.000
69.14000 404.000
69.16000 409.000
69.18000 393.000
69.20000 406.000
69.22000 396.000
69.24000 400.000
69.26000 375.000
69.28000 403.000
69.30000 404.000
69.32000 432.000
69.34000 423.000
69.36000 417.000
69.38000 448.000
69.40000 493.000
69.42000 484.000
69.44000 580.000
69.46000 703.000
69.48000 922.000
69.50000 1072.000
69.52000 1145.000
69.54000 933.000
69.56000 753.000
69.58000 610.000
69.60000 540.000
69.62000 541.000
69.64000 556.000
69.66000 613.000
69.68000 706.000
69.70000 797.000
69.72000 744.000
69.74000 691.000
69.76000 554.000
69.78000 503.000
69.80000 454.000
69.82000 492.000
69.84000 445.000
69.86000 425.000
69.88000 429.000
69.90000 442.000
69.92000 418.000
69.94000 440.000
69.96000 405.000
69.98000 424.000
70.00000 423.000
70.02000 392.000
70.04000 411.000
70.06000 416.000
70.08000 434.000
70.10000 441.000
70.12000 469.000
70.14000 470.000
70.16000 402.000
70.18000 460.000
70.20000 457.000
70.22000 432.000
70.24000 464.000
70.26000 436.000
70.28000 448.000
70.30000 492.000
70.32000 467.000
70.34000 473.000
70.36000 488.000
70.38000 562.000
70.40000 634.000
70.42000 710.000
70.44000 821.000
70.46000 1068.000
70.48000 1581.000
70.50000 2230.000
70.52000 2809.000
70.54000 2567.000
70.56000 2015.000
70.58000 1334.000
70.60000 944.000
70.62000 807.000
70.64000 799.000
70.66000 897.000
70.68000 1133.000
70.70000 1364.000
70.72000 1559.000
70.74000 1590.000
70.76000 1230.000
70.78000 904.000
70.80000 674.000
70.82000 573.000
70.84000 518.000
70.86000 486.000
70.88000 479.000
70.90000 479.000
70.92000 471.000
70.94000 467.000
70.96000 458.000
70.98000 481.000
71.00000 412.000
71.02000 441.000
71.04000 438.000
71.06000 435.000
71.08000 402.000
71.10000 405.000
71.12000 406.000
71.14000 433.000
71.16000 418.000
71.18000 399.000
71.20000 401.000
71.22000 406.000
71.24000 427.000
71.26000 432.000
71.28000 414.000
71.30000 384.000
71.32000 387.000
71.34000 369.000
71.36000 441.000
71.38000 403.000
71.40000 420.000
71.42000 396.000
71.44000 394.000
71.46000 402.000
71.48000 424.000
71.50000 385.000
71.52000 406.000
71.54000 429.000
71.56000 428.000
71.58000 408.000
71.60000 407.000
71.62000 394.000
71.64000 414.000
71.66000 393.000
71.68000 397.000
71.70000 396.000
71.72000 390.000
71.74000 416.000
71.76000 444.000
71.78000 447.000
71.80000 409.000
71.82000 434.000
71.84000 412.000
71.86000 416.000
71.88000 389.000
71.90000 430.000
71.92000 441.000
71.94000 459.000
71.96000 419.000
71.98000 445.000
72.00000 447.000
72.02000 462.000
72.04000 473.000
72.06000 466.000
72.08000 490.000
72.10000 496.000
72.12000 512.000
72.14000 539.000
72.16000 511.000
72.18000 613.000
72.20000 564.000
72.22000 615.000
72.24000 602.000
72.26000 594.000
72.28000 655.000
72.30000 684.000
72.32000 677.000
72.34000 729.000
72.36000 815.000
72.38000 866.000
72.40000 980.000
72.42000 1195.000
72.44000 1581.000
72.46000 2372.000
72.48000 3663.000
72.50000 5479.000
72.52000 7644.000
72.54000 8541.000
72.56000 7033.000
72.58000 4852.000
72.60000 2972.000
72.62000 2045.000
72.64000 1691.000
72.66000 1763.000
72.68000 2112.000
72.70000 2775.000
72.72000 3747.000
72.74000 4510.000
72.76000 4190.000
72.78000 3232.000
72.80000 2140.000
72.82000 1420.000
72.84000 1082.000
72.86000 886.000
72.88000 787.000
72.90000 746.000
72.92000 673.000
72.94000 651.000
72.96000 612.000
72.98000 580.000
73.00000 516.000
73.02000 551.000
73.04000 536.000
73.06000 544.000
73.08000 524.000
73.10000 524.000
73.12000 536.000
73.14000 522.000
73.16000 527.000
73.18000 488.000
73.20000 468.000
73.22000 490.000
73.24000 495.000
73.26000 478.000
73.28000 477.000
73.30000 474.000
73.32000 471.000
73.34000 483.000
73.36000 521.000
73.38000 560.000
73.40000 586.000
73.42000 618.000
73.44000 740.000
73.46000 927.000
73.48000 1315.000
73.50000 1776.000
73.52000 2264.000
73.54000 2472.000
73.56000 2014.000
73.58000 1425.000
73.60000 1012.000
73.62000 846.000
73.64000 702.000
73.66000 756.000
73.68000 768.000
73.70000 1028.000
73.72000 1234.000
73.74000 1443.000
73.76000 1367.000
73.78000 1080.000
73.80000 867.000
73.82000 684.000
73.84000 561.000
73.86000 559.000
73.88000 525.000
73.90000 475.000
73.92000 462.000
73.94000 444.000
73.96000 477.000
73.98000 453.000
74.00000 478.000
74.02000 435.000
74.04000 449.000
74.06000 440.000
74.08000 422.000
74.10000 412.000
74.12000 446.000
74.14000 424.000
74.16000 456.000
74.18000 461.000
74.20000 460.000
74.22000 472.000
74.24000 455.000
74.26000 465.000
74.28000 450.000
74.30000 449.000
74.32000 448.000
74.34000 479.000
74.36000 509.000
74.38000 481.000
74.40000 580.000
74.42000 603.000
74.44000 741.000
74.46000 993.000
74.48000 1371.000
74.50000 1799.000
74.52000 2124.000
74.54000 2045.000
74.56000 1576.000
74.58000 1112.000
74.60000 843.000
74.62000 732.000
74.64000 666.000
74.66000 661.000
74.68000 752.000
74.70000 959.000
74.72000 1172.000
74.74000 1285.000
74.76000 1149.000
74.78000 969.000
74.80000 746.000
74.82000 576.000
74.84000 522.000
74.86000 483.000
74.88000 478.000
74.90000 493.000
74.92000 457.000
74.94000 436.000
74.96000 444.000
74.98000 395.000
75.00000 432.000
75.02000 434.000
75.04000 430.000
75.06000 424.000
75.08000 401.000
75.10000 374.000
75.12000 395.000
75.14000 390.000
75.16000 407.000
75.18000 371.000
75.20000 393.000
75.22000 421.000
75.24000 416.000
75.26000 398.000
75.28000 389.000
75.30000 405.000
75.32000 387.000
75.34000 377.000
75.36000 424.000
75.38000 373.000
75.40000 384.000
75.42000 411.000
75.44000 439.000
75.46000 454.000
75.48000 519.000
75.50000 561.000
75.52000 540.000
75.54000 530.000
75.56000 490.000
75.58000 478.000
75.60000 401.000
75.62000 421.000
75.64000 412.000
75.66000 436.000
75.68000 458.000
75.70000 462.000
75.72000 472.000
75.74000 495.000
75.76000 442.000
75.78000 422.000
75.80000 419.000
75.82000 409.000
75.84000 394.000
75.86000 386.000
75.88000 392.000
75.90000 427.000
75.92000 380.000
75.94000 379.000
75.96000 356.000
75.98000 404.000
76.00000 374.000
76.02000 387.000
76.04000 374.000
76.06000 379.000
76.08000 373.000
76.10000 403.000
76.12000 389.000
76.14000 418.000
76.16000 388.000
76.18000 375.000
76.20000 377.000
76.22000 387.000
76.24000 401.000
76.26000 373.000
76.28000 398.000
76.30000 374.000
76.32000 395.000
76.34000 417.000
76.36000 364.000
76.38000 384.000
76.40000 386.000
76.42000 388.000
76.44000 381.000
76.46000 381.000
76.48000 384.000
76.50000 370.000
76.52000 384.000
76.54000 395.000
76.56000 393.000
76.58000 387.000
76.60000 412.000
76.62000 404.000
76.64000 372.000
76.66000 398.000
76.68000 385.000
76.70000 405.000
76.72000 428.000
76.74000 403.000
76.76000 401.000
76.78000 422.000
76.80000 389.000
76.82000 385.000
76.84000 409.000
76.86000 412.000
76.88000 418.000
76.90000 424.000
76.92000 411.000
76.94000 407.000
76.96000 428.000
76.98000 412.000
77.00000 398.000
77.02000 435.000
77.04000 388.000
77.06000 451.000
77.08000 407.000
77.10000 441.000
77.12000 442.000
77.14000 416.000
77.16000 433.000
77.18000 445.000
77.20000 418.000
77.22000 415.000
77.24000 463.000
77.26000 493.000
77.28000 438.000
77.30000 481.000
77.32000 478.000
77.34000 516.000
77.36000 594.000
77.38000 713.000
77.40000 849.000
77.42000 1095.000
77.44000 1561.000
77.46000 2039.000
77.48000 2014.000
77.50000 1729.000
77.52000 1297.000
77.54000 917.000
77.56000 749.000
77.58000 628.000
77.60000 637.000
77.62000 655.000
77.64000 736.000
77.66000 895.000
77.68000 1135.000
77.70000 1248.000
77.72000 1167.000
77.74000 969.000
77.76000 748.000
77.78000 625.000
77.80000 549.000
77.82000 537.000
77.84000 487.000
77.86000 463.000
77.88000 469.000
77.90000 443.000
77.92000 439.000
77.94000 441.000
77.96000 457.000
77.98000 434.000
78.00000 426.000
78.02000 415.000
78.04000 434.000
78.06000 424.000
78.08000 389.000
78.10000 399.000
78.12000 409.000
78.14000 388.000
78.16000 396.000
78.18000 390.000
78.20000 388.000
78.22000 428.000
78.24000 370.000
78.26000 404.000
78.28000 382.000
78.30000 377.000
78.32000 411.000
78.34000 410.000
78.36000 422.000
78.38000 441.000
78.40000 472.000
78.42000 520.000
78.44000 586.000
78.46000 604.000
78.48000 546.000
78.50000 478.000
78.52000 415.000
78.54000 389.000
78.56000 369.000
78.58000 379.000
78.60000 377.000
78.62000 439.000
78.64000 475.000
78.66000 470.000
78.68000 510.000
78.70000 487.000
78.72000 448.000
78.74000 446.000
78.76000 423.000
78.78000 390.000
78.80000 401.000
78.82000 408.000
78.84000 421.000
78.86000 387.000
78.88000 362.000
78.90000 381.000
78.92000 379.000
78.94000 393.000
78.96000 408.000
78.98000 370.000
79.00000 407.000
79.02000 418.000
79.04000 411.000
79.06000 398.000
79.08000 401.000
79.10000 397.000
79.12000 388.000
79.14000 395.000
79.16000 426.000
79.18000 379.000
79.20000 387.000
79.22000 373.000
79.24000 417.000
79.26000 389.000
79.28000 423.000
79.30000 421.000
79.32000 431.000
79.34000 461.000
79.36000 468.000
79.38000 581.000
79.40000 602.000
79.42000 586.000
79.44000 616.000
79.46000 500.000
79.48000 453.000
79.50000 443.000
79.52000 436.000
79.54000 404.000
79.56000 447.000
79.58000 407.000
79.60000 464.000
79.62000 475.000
79.64000 512.000
79.66000 497.000
79.68000 471.000
79.70000 444.000
79.72000 416.000
79.74000 417.000
79.76000 397.000
79.78000 432.000
79.80000 438.000
79.82000 383.000
79.84000 399.000
79.86000 396.000
79.88000 389.000
79.90000 378.000
79.92000 397.000
79.94000 372.000
79.96000 378.000
79.98000 393.000
80.00000 408.000
80.02000 412.000
80.04000 396.000
80.06000 372.000
80.08000 412.000
80.10000 421.000
80.12000 379.000
80.14000 401.000
80.16000 360.000
80.18000 346.000
80.20000 357.000
80.22000 363.000
80.24000 364.000
80.26000 392.000
80.28000 377.000
80.30000 366.000
80.32000 364.000
80.34000 365.000
80.36000 360.000
80.38000 383.000
80.40000 352.000
80.42000 378.000
80.44000 384.000
80.46000 364.000
80.48000 357.000
80.50000 384.000
80.52000 389.000
80.54000 369.000
80.56000 389.000
80.58000 388.000
80.60000 362.000
80.62000 376.000
80.64000 388.000
80.66000 398.000
80.68000 390.000
80.70000 411.000
80.72000 381.000
80.74000 404.000
80.76000 397.000
80.78000 377.000
80.80000 385.000
80.82000 406.000
80.84000 384.000
80.86000 357.000
80.88000 365.000
80.90000 395.000
80.92000 385.000
80.94000 377.000
80.96000 397.000
80.98000 379.000
81.00000 403.000
81.02000 373.000
81.04000 378.000
81.06000 377.000
81.08000 398.000
81.10000 399.000
81.12000 411.000
81.14000 392.000
81.16000 387.000
81.18000 414.000
81.20000 429.000
81.22000 444.000
81.24000 450.000
81.26000 502.000
81.28000 543.000
81.30000 649.000
81.32000 750.000
81.34000 949.000
81.36000 1032.000
81.38000 829.000
81.40000 712.000
81.42000 550.000
81.44000 520.000
81.46000 477.000
81.48000 439.000
81.50000 475.000
81.52000 483.000
81.54000 530.000
81.56000 603.000
81.58000 714.000
81.60000 723.000
81.62000 651.000
81.64000 605.000
81.66000 538.000
81.68000 450.000
81.70000 459.000
81.72000 462.000
81.74000 407.000
81.76000 425.000
81.78000 403.000
81.80000 413.000
81.82000 411.000
81.84000 422.000
81.86000 396.000
81.88000 384.000
81.90000 395.000
81.92000 417.000
81.94000 430.000
81.96000 454.000
81.98000 443.000
82.00000 440.000
82.02000 445.000
82.04000 416.000
82.06000 443.000
82.08000 419.000
82.10000 441.000
82.12000 479.000
82.14000 509.000
82.16000 501.000
82.18000 527.000
82.20000 564.000
82.22000 638.000
82.24000 773.000
82.26000 966.000
82.28000 1376.000
82.30000 1774.000
82.32000 1902.000
82.34000 1689.000
82.36000 1297.000
82.38000 941.000
82.40000 722.000
82.42000 623.000
82.44000 577.000
82.46000 588.000
82.48000 611.000
82.50000 641.000
82.52000 836.000
82.54000 996.000
82.56000 1154.000
82.58000 1164.000
82.60000 963.000
82.62000 810.000
82.64000 620.000
82.66000 522.000
82.68000 483.000
82.70000 453.000
82.72000 430.000
82.74000 408.000
82.76000 474.000
82.78000 419.000
82.80000 440.000
82.82000 418.000
82.84000 406.000
82.86000 403.000
82.88000 392.000
82.90000 413.000
82.92000 394.000
82.94000 388.000
82.96000 390.000
82.98000 393.000
83.00000 361.000
83.02000 387.000
83.04000 378.000
83.06000 381.000
83.08000 385.000
83.10000 360.000
83.12000 352.000
83.14000 376.000
83.16000 391.000
83.18000 376.000
83.20000 363.000
83.22000 421.000
83.24000 398.000
83.26000 385.000
83.28000 406.000
83.30000 413.000
83.32000 378.000
83.34000 399.000
83.36000 373.000
83.38000 410.000
83.40000 375.000
83.42000 370.000
83.44000 367.000
83.46000 399.000
83.48000 389.000
83.50000 389.000
83.52000 403.000
83.54000 411.000
83.56000 410.000
83.58000 392.000
83.60000 373.000
83.62000 364.000
83.64000 360.000
83.66000 373.000
83.68000 377.000
83.70000 360.000
83.72000 379.000
83.74000 404.000
83.76000 372.000
83.78000 404.000
83.80000 385.000
83.82000 373.000
83.84000 411.000
83.86000 379.000
83.88000 368.000
83.90000 376.000
83.92000 388.000
83.94000 378.000
83.96000 371.000
83.98000 378.000
84.00000 395.000
84.02000 383.000
84.04000 393.000
84.06000 369.000
84.08000 406.000
84.10000 383.000
84.12000 378.000
84.14000 382.000
84.16000 370.000
84.18000 351.000
84.20000 390.000
84.22000 370.000
84.24000 390.000
84.26000 401.000
84.28000 386.000
84.30000 362.000
84.32000 375.000
84.34000 407.000
84.36000 379.000
84.38000 397.000
84.40000 388.000
84.42000 393.000
84.44000 385.000
84.46000 401.000
84.48000 377.000
84.50000 404.000
84.52000 429.000
84.54000 393.000
84.56000 380.000
84.58000 416.000
84.60000 420.000
84.62000 431.000
84.64000 414.000
84.66000 427.000
84.68000 408.000
84.70000 432.000
84.72000 418.000
84.74000 431.000
84.76000 418.000
84.78000 434.000
84.80000 421.000
84.82000 407.000
84.84000 431.000
84.86000 482.000
84.88000 412.000
84.90000 421.000
84.92000 455.000
84.94000 448.000
84.96000 446.000
84.98000 443.000
85.00000 481.000
85.02000 492.000
85.04000 530.000
85.06000 575.000
85.08000 656.000
85.10000 740.000
85.12000 955.000
85.14000 1274.000
85.16000 1782.000
85.18000 2218.000
85.20000 2426.000
85.22000 2070.000
85.24000 1541.000
85.26000 1118.000
85.28000 839.000
85.30000 700.000
85.32000 669.000
85.34000 659.000
85.36000 654.000
85.38000 754.000
85.40000 928.000
85.42000 1105.000
85.44000 1321.000
85.46000 1386.000
85.48000 1176.000
85.50000 1018.000
85.52000 810.000
85.54000 675.000
85.56000 588.000
85.58000 510.000
85.60000 479.000
85.62000 435.000
85.64000 459.000
85.66000 449.000
85.68000 432.000
85.70000 453.000
85.72000 427.000
85.74000 423.000
85.76000 406.000
85.78000 424.000
85.80000 404.000
85.82000 427.000
85.84000 428.000
85.86000 412.000
85.88000 414.000
85.90000 392.000
85.92000 416.000
85.94000 375.000
85.96000 404.000
85.98000 399.000
86.00000 386.000
86.02000 417.000
86.04000 395.000
86.06000 369.000
86.08000 401.000
86.10000 405.000
86.12000 429.000
86.14000 403.000
86.16000 403.000
86.18000 409.000
86.20000 368.000
86.22000 406.000
86.24000 415.000
86.26000 378.000
86.28000 367.000
86.30000 390.000
86.32000 388.000
86.34000 391.000
86.36000 407.000
86.38000 380.000
86.40000 385.000
86.42000 373.000
86.44000 368.000
86.46000 368.000
86.48000 382.000
86.50000 388.000
86.52000 415.000
86.54000 417.000
86.56000 387.000
86.58000 380.000
86.60000 388.000
86.62000 412.000
86.64000 428.000
86.66000 360.000
86.68000 384.000
86.70000 372.000
86.72000 400.000
86.74000 385.000
86.76000 412.000
86.78000 403.000
86.80000 417.000
86.82000 383.000
86.84000 379.000
86.86000 406.000
86.88000 397.000
86.90000 416.000
86.92000 381.000
86.94000 376.000
86.96000 398.000
86.98000 412.000
87.00000 400.000
87.02000 402.000
87.04000 403.000
87.06000 404.000
87.08000 397.000
87.10000 434.000
87.12000 442.000
87.14000 437.000
87.16000 422.000
87.18000 419.000
87.20000 406.000
87.22000 440.000
87.24000 424.000
87.26000 425.000
87.28000 399.000
87.30000 407.000
87.32000 411.000
87.34000 447.000
87.36000 439.000
87.38000 440.000
87.40000 439.000
87.42000 439.000
87.44000 424.000
87.46000 471.000
87.48000 475.000
87.50000 480.000
87.52000 486.000
87.54000 511.000
87.56000 517.000
87.58000 526.000
87.60000 487.000
87.62000 512.000
87.64000 508.000
87.66000 534.000
87.68000 506.000
87.70000 514.000
87.72000 541.000
87.74000 552.000
87.76000 588.000
87.78000 592.000
87.80000 604.000
87.82000 634.000
87.84000 682.000
87.86000 686.000
87.88000 804.000
87.90000 948.000
87.92000 1050.000
87.94000 1272.000
87.96000 1622.000
87.98000 2221.000
88.00000 3202.000
88.02000 4671.000
88.04000 6286.000
88.06000 7116.000
88.08000 6188.000
88.10000 4670.000
88.12000 3225.000
88.14000 2246.000
88.16000 1679.000
88.18000 1408.000
88.20000 1262.000
88.22000 1231.000
88.24000 1304.000
88.26000 1596.000
88.28000 2122.000
88.30000 2923.000
88.32000 3562.000
88.34000 3723.000
88.36000 3216.000
88.38000 2424.000
88.40000 1716.000
88.42000 1284.000
88.44000 994.000
88.46000 826.000
88.48000 763.000
88.50000 678.000
88.52000 658.000
88.54000 649.000
88.56000 606.000
88.58000 546.000
88.60000 554.000
88.62000 530.000
88.64000 520.000
88.66000 528.000
88.68000 511.000
88.70000 492.000
88.72000 482.000
88.74000 479.000
88.76000 508.000
88.78000 506.000
88.80000 521.000
88.82000 491.000
88.84000 514.000
88.86000 586.000
88.88000 551.000
88.90000 578.000
88.92000 639.000
88.94000 748.000
88.96000 899.000
88.98000 1071.000
89.00000 1251.000
89.02000 1353.000
89.04000 1173.000
89.06000 926.000
89.08000 775.000
89.10000 678.000
89.12000 591.000
89.14000 520.000
89.16000 565.000
89.18000 548.000
89.20000 543.000
89.22000 659.000
89.24000 678.000
89.26000 732.000
89.28000 900.000
89.30000 874.000
89.32000 840.000
89.34000 742.000
89.36000 617.000
89.38000 562.000
89.40000 531.000
89.42000 456.000
89.44000 465.000
89.46000 480.000
89.48000 475.000
89.50000 478.000
89.52000 480.000
89.54000 421.000
89.56000 457.000
89.58000 453.000
89.60000 467.000
89.62000 477.000
89.64000 496.000
89.66000 467.000
89.68000 469.000
89.70000 458.000
89.72000 476.000
89.74000 494.000
89.76000 494.000
89.78000 529.000
89.80000 551.000
89.82000 627.000
89.84000 677.000
89.86000 765.000
89.88000 871.000
89.90000 1132.000
89.92000 1516.000
89.94000 2036.000
89.96000 2338.000
89.98000 2342.000
