5.00000 380.000
5.02000 414.000
5.04000 408.000
5.06000 407.000
5.08000 452.000
5.10000 414.000
5.12000 448.000
5.14000 446.000
5.16000 455.000
5.18000 464.000
5.20000 468.000
5.22000 417.000
5.24000 443.000
5.26000 448.000
5.28000 432.000
5.30000 433.000
5.32000 448.000
5.34000 421.000
5.36000 402.000
5.38000 408.000
5.40000 416.000
5.42000 396.000
5.44000 399.000
5.46000 410.000
5.48000 421.000
5.50000 398.000
5.52000 418.000
5.54000 442.000
5.56000 437.000
5.58000 415.000
5.60000 417.000
5.62000 394.000
5.64000 441.000
5.66000 430.000
5.68000 368.000
5.70000 432.000
5.72000 441.000
5.74000 405.000
5.76000 402.000
5.78000 439.000
5.80000 374.000
5.82000 426.000
5.84000 433.000
5.86000 430.000
5.88000 438.000
5.90000 417.000
5.92000 427.000
5.94000 421.000
5.96000 421.000
5.98000 425.000
6.00000 394.000
6.02000 436.000
6.04000 408.000
6.06000 392.000
6.08000 416.000
6.10000 384.000
6.12000 417.000
6.14000 416.000
6.16000 380.000
6.18000 405.000
6.20000 379.000
6.22000 423.000
6.24000 417.000
6.26000 395.000
6.28000 434.000
6.30000 442.000
6.32000 404.000
6.34000 398.000
6.36000 409.000
6.38000 420.000
6.40000 434.000
6.42000 449.000
6.44000 418.000
6.46000 440.000
6.48000 399.000
6.50000 366.000
6.52000 392.000
6.54000 421.000
6.56000 415.000
6.58000 412.000
6.60000 419.000
6.62000 403.000
6.64000 409.000
6.66000 399.000
6.68000 402.000
6.70000 389.000
6.72000 375.000
6.74000 423.000
6.76000 403.000
6.78000 437.000
6.80000 410.000
6.82000 413.000
6.84000 427.000
6.86000 412.000
6.88000 411.000
6.90000 436.000
6.92000 421.000
6.94000 401.000
6.96000 407.000
6.98000 444.000
7.00000 414.000
7.02000 413.000
7.04000 431.000
7.06000 403.000
7.08000 432.000
7.10000 438.000
7.12000 446.000
7.14000 390.000
7.16000 413.000
7.18000 396.000
7.20000 426.000
7.22000 377.000
7.24000 426.000
7.26000 439.000
7.28000 427.000
7.30000 423.000
7.32000 403.000
7.34000 418.000
7.36000 422.000
7.38000 404.000
7.40000 408.000
7.42000 431.000
7.44000 415.000
7.46000 394.000
7.48000 402.000
7.50000 436.000
7.52000 427.000
7.54000 426.000
7.56000 414.000
7.58000 406.000
7.60000 442.000
7.62000 387.000
7.64000 386.000
7.66000 425.000
7.68000 412.000
7.70000 426.000
7.72000 460.000
7.74000 423.000
7.76000 392.000
7.78000 401.000
7.80000 412.000
7.82000 433.000
7.84000 433.000
7.86000 425.000
7.88000 397.000
7.90000 396.000
7.92000 417.000
7.94000 415.000
7.96000 423.000
7.98000 400.000
8.00000 383.000
8.02000 415.000
8.04000 399.000
8.06000 410.000
8.08000 435.000
8.10000 431.000
8.12000 409.000
8.14000 413.000
8.16000 393.000
8.18000 408.000
8.20000 414.000
8.22000 423.000
8.24000 435.000
8.26000 446.000
8.28000 447.000
8.30000 417.000
8.32000 420.000
8.34000 405.000
8.36000 412.000
8.38000 375.000
8.40000 410.000
8.42000 391.000
8.44000 430.000
8.46000 439.000
8.48000 411.000
8.50000 369.000
8.52000 414.000
8.54000 405.000
8.56000 434.000
8.58000 433.000
8.60000 422.000
8.62000 430.000
8.64000 421.000
8.66000 417.000
8.68000 387.000
8.70000 388.000
8.72000 413.000
8.74000 422.000
8.76000 416.000
8.78000 425.000
8.80000 398.000
8.82000 430.000
8.84000 416.000
8.86000 407.000
8.88000 401.000
8.90000 422.000
8.92000 407.000
8.94000 417.000
8.96000 400.000
8.98000 384.000
9.00000 408.000
9.02000 389.000
9.04000 415.000
9.06000 451.000
9.08000 430.000
9.10000 412.000
9.12000 403.000
9.14000 415.000
9.16000 400.000
9.18000 419.000
9.20000 393.000
9.22000 377.000
9.24000 411.000
9.26000 397.000
9.28000 436.000
9.30000 441.000
9.32000 436.000
9.34000 400.000
9.36000 385.000
9.38000 398.000
9.40000 400.000
9.42000 401.000
9.44000 421.000
9.46000 406.000
9.48000 411.000
9.50000 412.000
9.52000 420.000
9.54000 389.000
9.56000 411.000
9.58000 422.000
9.60000 392.000
9.62000 408.000
9.64000 414.000
9.66000 388.000
9.68000 425.000
9.70000 379.000
9.72000 418.000
9.74000 405.000
9.76000 417.000
9.78000 397.000
9.80000 389.000
9.82000 395.000
9.84000 446.000
9.86000 405.000
9.88000 359.000
9.90000 369.000
9.92000 408.000
9.94000 396.000
9.96000 400.000
9.98000 413.000
10.00000 414.000
10.02000 398.000
10.04000 415.000
10.06000 396.000
10.08000 381.000
10.10000 402.000
10.12000 416.000
10.14000 417.000
10.16000 417.000
10.18000 405.000
10.20000 401.000
10.22000 405.000
10.24000 413.000
10.26000 390.000
10.28000 403.000
10.30000 413.000
10.32000 396.000
10.34000 366.000
10.36000 394.000
10.38000 397.000
10.40000 369.000
10.42000 389.000
10.44000 378.000
10.46000 407.000
10.48000 402.000
10.50000 409.000
10.52000 429.000
10.54000 408.000
10.56000 436.000
10.58000 408.000
10.60000 397.000
10.62000 349.000
10.64000 397.000
10.66000 435.000
10.68000 429.000
10.70000 416.000
10.72000 389.000
10.74000 384.000
10.76000 426.000
10.78000 421.000
10.80000 426.000
10.82000 374.000
10.84000 386.000
10.86000 401.000
10.88000 396.000
10.90000 392.000
10.92000 410.000
10.94000 416.000
10.96000 386.000
10.98000 374.000
11.00000 415.000
11.02000 418.000
11.04000 405.000
11.06000 401.000
11.08000 433.000
11.10000 395.000
11.12000 408.000
11.14000 416.000
11.16000 435.000
11.18000 444.000
11.20000 365.000
11.22000 392.000
11.24000 397.000
11.26000 404.000
11.28000 382.000
11.30000 403.000
11.32000 407.000
11.34000 435.000
11.36000 383.000
11.38000 425.000
11.40000 398.000
11.42000 405.000
11.44000 417.000
11.46000 414.000
11.48000 407.000
11.50000 393.000
11.52000 366.000
11.54000 387.000
11.56000 400.000
11.58000 390.000
11.60000 396.000
11.62000 411.000
11.64000 397.000
11.66000 370.000
11.68000 386.000
11.70000 391.000
11.72000 394.000
11.74000 405.000
11.76000 428.000
11.78000 413.000
11.80000 409.000
11.82000 437.000
11.84000 385.000
11.86000 370.000
11.88000 389.000
11.90000 414.000
11.92000 401.000
11.94000 428.000
11.96000 391.000
11.98000 400.000
12.00000 406.000
12.02000 406.000
12.04000 391.000
12.06000 421.000
12.08000 420.000
12.10000 433.000
12.12000 388.000
12.14000 373.000
12.16000 389.000
12.18000 413.000
12.20000 423.000
12.22000 396.000
12.24000 413.000
12.26000 401.000
12.28000 399.000
12.30000 419.000
12.32000 407.000
12.34000 400.000
12.36000 409.000
12.38000 397.000
12.40000 419.000
12.42000 402.000
12.44000 413.000
12.46000 401.000
12.48000 419.000
12.50000 425.000
12.52000 418.000
12.54000 407.000
12.56000 417.000
12.58000 378.000
12.60000 397.000
12.62000 411.000
12.64000 403.000
12.66000 396.000
12.68000 410.000
12.70000 406.000
12.72000 437.000
12.74000 401.000
12.76000 408.000
12.78000 404.000
12.80000 413.000
12.82000 369.000
12.84000 409.000
12.86000 401.000
12.88000 412.000
12.90000 423.000
12.92000 411.000
12.94000 424.000
12.96000 404.000
12.98000 385.000
13.00000 389.000
13.02000 404.000
13.04000 398.000
13.06000 412.000
13.08000 408.000
13.10000 402.000
13.12000 407.000
13.14000 390.000
13.16000 384.000
13.18000 404.000
13.20000 391.000
13.22000 400.000
13.24000 398.000
13.26000 406.000
13.28000 384.000
13.30000 437.000
13.32000 400.000
13.34000 432.000
13.36000 424.000
13.38000 423.000
13.40000 410.000
13.42000 394.000
13.44000 434.000
13.46000 460.000
13.48000 405.000
13.50000 366.000
13.52000 417.000
13.54000 401.000
13.56000 389.000
13.58000 404.000
13.60000 395.000
13.62000 440.000
13.64000 394.000
13.66000 384.000
13.68000 406.000
13.70000 412.000
13.72000 420.000
13.74000 428.000
13.76000 406.000
13.78000 370.000
13.80000 355.000
13.82000 412.000
13.84000 420.000
13.86000 413.000
13.88000 434.000
13.90000 401.000
13.92000 393.000
13.94000 396.000
13.96000 415.000
13.98000 408.000
14.00000 412.000
14.02000 422.000
14.04000 436.000
14.06000 387.000
14.08000 392.000
14.10000 390.000
14.12000 366.000
14.14000 402.000
14.16000 433.000
14.18000 410.000
14.20000 388.000
14.22000 409.000
14.24000 419.000
14.26000 405.000
14.28000 398.000
14.30000 416.000
14.32000 426.000
14.34000 392.000
14.36000 380.000
14.38000 394.000
14.40000 425.000
14.42000 421.000
14.44000 440.000
14.46000 410.000
14.48000 405.000
14.50000 438.000
14.52000 459.000
14.54000 406.000
14.56000 404.000
14.58000 402.000
14.60000 421.000
14.62000 400.000
14.64000 417.000
14.66000 417.000
14.68000 404.000
14.70000 406.000
14.72000 404.000
14.74000 416.000
14.76000 396.000
14.78000 414.000
14.80000 401.000
14.82000 379.000
14.84000 416.000
14.86000 385.000
14.88000 408.000
14.90000 432.000
14.92000 406.000
14.94000 381.000
14.96000 373.000
14.98000 416.000
15.00000 378.000
15.02000 409.000
15.04000 445.000
15.06000 404.000
15.08000 425.000
15.10000 392.000
15.12000 411.000
15.14000 397.000
15.16000 420.000
15.18000 420.000
15.20000 416.000
15.22000 384.000
15.24000 384.000
15.26000 404.000
15.28000 374.000
15.30000 440.000
15.32000 438.000
15.34000 379.000
15.36000 391.000
15.38000 419.000
15.40000 403.000
15.42000 400.000
15.44000 425.000
15.46000 410.000
15.48000 399.000
15.50000 386.000
15.52000 400.000
15.54000 412.000
15.56000 441.000
15.58000 412.000
15.60000 396.000
15.62000 370.000
15.64000 405.000
15.66000 424.000
15.68000 394.000
15.70000 405.000
15.72000 409.000
15.74000 412.000
15.76000 438.000
15.78000 407.000
15.80000 409.000
15.82000 404.000
15.84000 428.000
15.86000 397.000
15.88000 409.000
15.90000 416.000
15.92000 399.000
15.94000 437.000
15.96000 440.000
15.98000 403.000
16.00000 406.000
16.02000 420.000
16.04000 387.000
16.06000 435.000
16.08000 429.000
16.10000 426.000
16.12000 411.000
16.14000 415.000
16.16000 421.000
16.18000 441.000
16.20000 433.000
16.22000 422.000
16.24000 390.000
16.26000 414.000
16.28000 423.000
16.30000 416.000
16.32000 411.000
16.34000 428.000
16.36000 408.000
16.38000 431.000
16.40000 403.000
16.42000 411.000
16.44000 408.000
16.46000 395.000
16.48000 426.000
16.50000 404.000
16.52000 397.000
16.54000 423.000
16.56000 388.000
16.58000 420.000
16.60000 412.000
16.62000 440.000
16.64000 414.000
16.66000 430.000
16.68000 417.000
16.70000 417.000
16.72000 425.000
16.74000 400.000
16.76000 414.000
16.78000 424.000
16.80000 416.000
16.82000 414.000
16.84000 400.000
16.86000 429.000
16.88000 430.000
16.90000 408.000
16.92000 417.000
16.94000 398.000
16.96000 421.000
16.98000 428.000
17.00000 415.000
17.02000 416.000
17.04000 412.000
17.06000 425.000
17.08000 446.000
17.10000 382.000
17.12000 416.000
17.14000 404.000
17.16000 414.000
17.18000 418.000
17.20000 438.000
17.22000 444.000
17.24000 442.000
17.26000 410.000
17.28000 391.000
17.30000 400.000
17.32000 413.000
17.34000 415.000
17.36000 421.000
17.38000 449.000
17.40000 419.000
17.42000 462.000
17.44000 446.000
17.46000 431.000
17.48000 437.000
17.50000 441.000
17.52000 453.000
17.54000 438.000
17.56000 456.000
17.58000 497.000
17.60000 471.000
17.62000 494.000
17.64000 511.000
17.66000 477.000
17.68000 497.000
17.70000 523.000
17.72000 545.000
17.74000 524.000
17.76000 527.000
17.78000 521.000
17.80000 529.000
17.82000 520.000
17.84000 553.000
17.86000 537.000
17.88000 596.000
17.90000 578.000
17.92000 655.000
17.94000 803.000
17.96000 952.000
17.98000 1183.000
18.00000 1581.000
18.02000 2232.000
18.04000 3257.000
18.06000 4720.000
18.08000 6572.000
18.10000 8600.000
18.12000 9276.000
18.14000 7660.000
18.16000 5519.000
18.18000 3549.000
18.20000 1933.000
18.22000 1048.000
18.24000 749.000
18.26000 650.000
18.28000 627.000
18.30000 595.000
18.32000 517.000
18.34000 547.000
18.36000 519.000
18.38000 531.000
18.40000 553.000
18.42000 521.000
18.44000 522.000
18.46000 521.000
18.48000 512.000
18.50000 535.000
18.52000 483.000
18.54000 473.000
18.56000 453.000
18.58000 464.000
18.60000 456.000
18.62000 486.000
18.64000 458.000
18.66000 457.000
18.68000 449.000
18.70000 461.000
18.72000 452.000
18.74000 463.000
18.76000 461.000
18.78000 447.000
18.80000 448.000
18.82000 463.000
18.84000 453.000
18.86000 464.000
18.88000 456.000
18.90000 457.000
18.92000 429.000
18.94000 433.000
18.96000 464.000
18.98000 465.000
19.00000 457.000
19.02000 438.000
19.04000 467.000
19.06000 422.000
19.08000 492.000
19.10000 470.000
19.12000 443.000
19.14000 447.000
19.16000 453.000
19.18000 460.000
19.20000 470.000
19.22000 483.000
19.24000 435.000
19.26000 419.000
19.28000 421.000
19.30000 423.000
19.32000 441.000
19.34000 405.000
19.36000 458.000
19.38000 443.000
19.40000 453.000
19.42000 437.000
19.44000 434.000
19.46000 458.000
19.48000 463.000
19.50000 443.000
19.52000 417.000
19.54000 416.000
19.56000 404.000
19.58000 425.000
19.60000 429.000
19.62000 390.000
19.64000 437.000
19.66000 441.000
19.68000 437.000
19.70000 464.000
19.72000 474.000
19.74000 458.000
19.76000 403.000
19.78000 421.000
19.80000 422.000
19.82000 443.000
19.84000 456.000
19.86000 461.000
19.88000 451.000
19.90000 471.000
19.92000 447.000
19.94000 453.000
19.96000 445.000
19.98000 432.000
20.00000 448.000
20.02000 461.000
20.04000 437.000
20.06000 422.000
20.08000 438.000
20.10000 438.000
20.12000 436.000
20.14000 455.000
20.16000 452.000
20.18000 453.000
20.20000 415.000
20.22000 466.000
20.24000 478.000
20.26000 411.000
20.28000 417.000
20.30000 440.000
20.32000 417.000
20.34000 438.000
20.36000 449.000
20.38000 469.000
20.40000 484.000
20.42000 453.000
20.44000 480.000
20.46000 464.000
20.48000 486.000
20.50000 451.000
20.52000 484.000
20.54000 447.000
20.56000 476.000
20.58000 503.000
20.60000 461.000
20.62000 493.000
20.64000 481.000
20.66000 489.000
20.68000 463.000
20.70000 459.000
20.72000 505.000
20.74000 510.000
20.76000 522.000
20.78000 588.000
20.80000 639.000
20.82000 715.000
20.84000 868.000
20.86000 1073.000
20.88000 1364.000
20.90000 1854.000
20.92000 2343.000
20.94000 2813.000
20.96000 2588.000
20.98000 2181.000
21.00000 1633.000
21.02000 1167.000
21.04000 820.000
21.06000 582.000
21.08000 508.000
21.10000 497.000
21.12000 502.000
21.14000 539.000
21.16000 486.000
21.18000 490.000
21.20000 483.000
21.22000 444.000
21.24000 449.000
21.26000 470.000
21.28000 455.000
21.30000 467.000
21.32000 447.000
21.34000 459.000
21.36000 455.000
21.38000 433.000
21.40000 460.000
21.42000 458.000
21.44000 449.000
21.46000 401.000
21.48000 425.000
21.50000 449.000
21.52000 458.000
21.54000 425.000
21.56000 463.000
21.58000 431.000
21.60000 453.000
21.62000 464.000
21.64000 434.000
21.66000 452.000
21.68000 443.000
21.70000 441.000
21.72000 430.000
21.74000 460.000
21.76000 441.000
21.78000 462.000
21.80000 417.000
21.82000 451.000
21.84000 471.000
21.86000 402.000
21.88000 403.000
21.90000 431.000
21.92000 471.000
21.94000 452.000
21.96000 454.000
21.98000 409.000
22.00000 465.000
22.02000 446.000
22.04000 449.000
22.06000 446.000
22.08000 461.000
22.10000 433.000
22.12000 438.000
22.14000 421.000
22.16000 437.000
22.18000 437.000
22.20000 462.000
22.22000 436.000
22.24000 457.000
22.26000 438.000
22.28000 395.000
22.30000 451.000
22.32000 469.000
22.34000 491.000
22.36000 417.000
22.38000 448.000
22.40000 443.000
22.42000 465.000
22.44000 446.000
22.46000 464.000
22.48000 443.000
22.50000 439.000
22.52000 442.000
22.54000 456.000
22.56000 428.000
22.58000 463.000
22.60000 431.000
22.62000 452.000
22.64000 434.000
22.66000 439.000
22.68000 465.000
22.70000 451.000
22.72000 433.000
22.74000 433.000
22.76000 446.000
22.78000 429.000
22.80000 421.000
22.82000 433.000
22.84000 472.000
22.86000 418.000
22.88000 431.000
22.90000 464.000
22.92000 437.000
22.94000 420.000
22.96000 456.000
22.98000 461.000
23.00000 424.000
23.02000 468.000
23.04000 437.000
23.06000 443.000
23.08000 465.000
23.10000 429.000
23.12000 437.000
23.14000 466.000
23.16000 439.000
23.18000 440.000
23.20000 461.000
23.22000 451.000
23.24000 418.000
23.26000 446.000
23.28000 456.000
23.30000 441.000
23.32000 460.000
23.34000 477.000
23.36000 438.000
23.38000 450.000
23.40000 490.000
23.42000 449.000
23.44000 472.000
23.46000 490.000
23.48000 448.000
23.50000 450.000
23.52000 418.000
23.54000 443.000
23.56000 446.000
23.58000 435.000
23.60000 476.000
23.62000 458.000
23.64000 433.000
23.66000 501.000
23.68000 441.000
23.70000 437.000
23.72000 435.000
23.74000 422.000
23.76000 451.000
23.78000 455.000
23.80000 457.000
23.82000 433.000
23.84000 428.000
23.86000 447.000
23.88000 475.000
23.90000 421.000
23.92000 445.000
23.94000 451.000
23.96000 493.000
23.98000 447.000
24.00000 440.000
24.02000 446.000
24.04000 430.000
24.06000 457.000
24.08000 466.000
24.10000 459.000
24.12000 468.000
24.14000 449.000
24.16000 467.000
24.18000 441.000
24.20000 457.000
24.22000 471.000
24.24000 434.000
24.26000 456.000
24.28000 442.000
24.30000 454.000
24.32000 444.000
24.34000 445.000
24.36000 425.000
24.38000 425.000
24.40000 475.000
24.42000 451.000
24.44000 455.000
24.46000 445.000
24.48000 454.000
24.50000 445.000
24.52000 446.000
24.54000 416.000
24.56000 478.000
24.58000 463.000
24.60000 457.000
24.62000 452.000
24.64000 483.000
24.66000 449.000
24.68000 466.000
24.70000 466.000
24.72000 434.000
24.74000 443.000
24.76000 467.000
24.78000 442.000
24.80000 455.000
24.82000 469.000
24.84000 424.000
24.86000 449.000
24.88000 446.000
24.90000 466.000
24.92000 461.000
24.94000 460.000
24.96000 479.000
24.98000 415.000
25.00000 468.000
25.02000 451.000
25.04000 457.000
25.06000 468.000
25.08000 436.000
25.10000 490.000
25.12000 477.000
25.14000 462.000
25.16000 455.000
25.18000 430.000
25.20000 453.000
25.22000 470.000
25.24000 447.000
25.26000 449.000
25.28000 459.000
25.30000 481.000
25.32000 449.000
25.34000 452.000
25.36000 439.000
25.38000 459.000
25.40000 469.000
25.42000 465.000
25.44000 472.000
25.46000 458.000
25.48000 488.000
25.50000 462.000
25.52000 497.000
25.54000 519.000
25.56000 488.000
25.58000 490.000
25.60000 469.000
25.62000 462.000
25.64000 476.000
25.66000 435.000
25.68000 486.000
25.70000 452.000
25.72000 440.000
25.74000 444.000
25.76000 434.000
25.78000 429.000
25.80000 451.000
25.82000 464.000
25.84000 465.000
25.86000 450.000
25.88000 462.000
25.90000 456.000
25.92000 475.000
25.94000 482.000
25.96000 432.000
25.98000 465.000
26.00000 493.000
26.02000 464.000
26.04000 415.000
26.06000 434.000
26.08000 447.000
26.10000 470.000
26.12000 459.000
26.14000 478.000
26.16000 419.000
26.18000 417.000
26.20000 454.000
26.22000 475.000
26.24000 447.000
26.26000 472.000
26.28000 457.000
26.30000 450.000
26.32000 443.000
26.34000 448.000
26.36000 440.000
26.38000 482.000
26.40000 492.000
26.42000 477.000
26.44000 455.000
26.46000 467.000
26.48000 466.000
26.50000 433.000
26.52000 469.000
26.54000 444.000
26.56000 451.000
26.58000 439.000
26.60000 441.000
26.62000 491.000
26.64000 470.000
26.66000 436.000
26.68000 450.000
26.70000 444.000
26.72000 439.000
26.74000 469.000
26.76000 485.000
26.78000 457.000
26.80000 484.000
26.82000 489.000
26.84000 476.000
26.86000 484.000
26.88000 484.000
26.90000 466.000
26.92000 463.000
26.94000 479.000
26.96000 498.000
26.98000 482.000
27.00000 491.000
27.02000 482.000
27.04000 496.000
27.06000 499.000
27.08000 492.000
27.10000 521.000
27.12000 469.000
27.14000 493.000
27.16000 492.000
27.18000 500.000
27.20000 484.000
27.22000 495.000
27.24000 500.000
27.26000 513.000
27.28000 501.000
27.30000 504.000
27.32000 518.000
27.34000 526.000
27.36000 564.000
27.38000 544.000
27.40000 542.000
27.42000 566.000
27.44000 550.000
27.46000 570.000
27.48000 546.000
27.50000 534.000
27.52000 561.000
27.54000 579.000
27.56000 598.000
27.58000 574.000
27.60000 632.000
27.62000 687.000
27.64000 816.000
27.66000 902.000
27.68000 1120.000
27.70000 1439.000
27.72000 1876.000
27.74000 2613.000
27.76000 3623.000
27.78000 5230.000
27.80000 6928.000
27.82000 7950.000
27.84000 7188.000
27.86000 5530.000
27.88000 4635.000
27.90000 3875.000
27.92000 2644.000
27.94000 1548.000
27.96000 963.000
27.98000 720.000
28.00000 674.000
28.02000 640.000
28.04000 604.000
28.06000 599.000
28.08000 576.000
28.10000 568.000
28.12000 567.000
28.14000 523.000
28.16000 564.000
28.18000 589.000
28.20000 525.000
28.22000 538.000
28.24000 558.000
28.26000 540.000
28.28000 526.000
28.30000 516.000
28.32000 520.000
28.34000 555.000
28.36000 560.000
28.38000 529.000
28.40000 525.000
28.42000 533.000
28.44000 522.000
28.46000 556.000
28.48000 572.000
28.50000 603.000
28.52000 573.000
28.54000 573.000
28.56000 568.000
28.58000 545.000
28.60000 545.000
28.62000 541.000
28.64000 495.000
28.66000 485.000
28.68000 476.000
28.70000 475.000
28.72000 481.000
28.74000 550.000
28.76000 510.000
28.78000 491.000
28.80000 516.000
28.82000 511.000
28.84000 502.000
28.86000 504.000
28.88000 493.000
28.90000 520.000
28.92000 529.000
28.94000 494.000
28.96000 458.000
28.98000 528.000
29.00000 493.000
29.02000 507.000
29.04000 492.000
29.06000 523.000
29.08000 523.000
29.10000 494.000
29.12000 512.000
29.14000 480.000
29.16000 482.000
29.18000 476.000
29.20000 518.000
29.22000 515.000
29.24000 526.000
29.26000 574.000
29.28000 564.000
29.30000 573.000
29.32000 611.000
29.34000 556.000
29.36000 551.000
29.38000 596.000
29.40000 525.000
29.42000 578.000
29.44000 541.000
29.46000 550.000
29.48000 568.000
29.50000 552.000
29.52000 571.000
29.54000 580.000
29.56000 609.000
29.58000 725.000
29.60000 783.000
29.62000 850.000
29.64000 1053.000
29.66000 1380.000
29.68000 1707.000
29.70000 2397.000
29.72000 3459.000
29.74000 4853.000
29.76000 6528.000
29.78000 7545.000
29.80000 7023.000
29.82000 5690.000
29.84000 4525.000
29.86000 4095.000
29.88000 3112.000
29.90000 1932.000
29.92000 1182.000
29.94000 829.000
29.96000 716.000
29.98000 639.000
30.00000 641.000
30.02000 613.000
30.04000 568.000
30.06000 634.000
30.08000 599.000
30.10000 616.000
30.12000 564.000
30.14000 552.000
30.16000 563.000
30.18000 571.000
30.20000 546.000
30.22000 490.000
30.24000 532.000
30.26000 516.000
30.28000 521.000
30.30000 500.000
30.32000 484.000
30.34000 501.000
30.36000 497.000
30.38000 520.000
30.40000 529.000
30.42000 460.000
30.44000 513.000
30.46000 474.000
30.48000 459.000
30.50000 478.000
30.52000 525.000
30.54000 478.000
30.56000 450.000
30.58000 480.000
30.60000 487.000
30.62000 471.000
30.64000 459.000
30.66000 465.000
30.68000 486.000
30.70000 484.000
30.72000 505.000
30.74000 478.000
30.76000 496.000
30.78000 455.000
30.80000 497.000
30.82000 492.000
30.84000 513.000
30.86000 470.000
30.88000 482.000
30.90000 480.000
30.92000 498.000
30.94000 492.000
30.96000 483.000
30.98000 492.000
31.00000 492.000
31.02000 480.000
31.04000 471.000
31.06000 482.000
31.08000 487.000
31.10000 479.000
31.12000 501.000
31.14000 459.000
31.16000 472.000
31.18000 462.000
31.20000 461.000
31.22000 504.000
31.24000 482.000
31.26000 447.000
31.28000 459.000
31.30000 452.000
31.32000 467.000
31.34000 469.000
31.36000 512.000
31.38000 474.000
31.40000 473.000
31.42000 461.000
31.44000 479.000
31.46000 452.000
31.48000 487.000
31.50000 517.000
31.52000 442.000
31.54000 445.000
31.56000 417.000
31.58000 455.000
31.60000 438.000
31.62000 479.000
31.64000 475.000
31.66000 458.000
31.68000 448.000
31.70000 487.000
31.72000 480.000
31.74000 474.000
31.76000 467.000
31.78000 433.000
31.80000 444.000
31.82000 452.000
31.84000 479.000
31.86000 499.000
31.88000 462.000
31.90000 473.000
31.92000 461.000
31.94000 462.000
31.96000 464.000
31.98000 482.000
32.00000 447.000
32.02000 451.000
32.04000 457.000
32.06000 472.000
32.08000 443.000
32.10000 474.000
32.12000 458.000
32.14000 466.000
32.16000 479.000
32.18000 499.000
32.20000 491.000
32.22000 501.000
32.24000 529.000
32.26000 556.000
32.28000 548.000
32.30000 539.000
32.32000 570.000
32.34000 522.000
32.36000 537.000
32.38000 548.000
32.40000 554.000
32.42000 550.000
32.44000 591.000
32.46000 526.000
32.48000 539.000
32.50000 530.000
32.52000 548.000
32.54000 523.000
32.56000 562.000
32.58000 538.000
32.60000 556.000
32.62000 591.000
32.64000 546.000
32.66000 540.000
32.68000 603.000
32.70000 613.000
32.72000 588.000
32.74000 615.000
32.76000 636.000
32.78000 629.000
32.80000 657.000
32.82000 705.000
32.84000 703.000
32.86000 713.000
32.88000 758.000
32.90000 756.000
32.92000 820.000
32.94000 860.000
32.96000 850.000
32.98000 876.000
33.00000 906.000
33.02000 874.000
33.04000 928.000
33.06000 955.000
33.08000 988.000
33.10000 1024.000
33.12000 1005.000
33.14000 1080.000
33.16000 1199.000
33.18000 1303.000
33.20000 1501.000
33.22000 1866.000
33.24000 2512.000
33.26000 3385.000
33.28000 4955.000
33.30000 7542.000
33.32000 11292.000
33.34000 17164.000
33.36000 24857.000
33.38000 32521.000
33.40000 34438.000
33.42000 28858.000
33.44000 22001.000
33.46000 19352.000
33.48000 18003.000
33.50000 13930.000
33.52000 8481.000
33.54000 4331.000
33.56000 2508.000
33.58000 1775.000
33.60000 1460.000
33.62000 1168.000
33.64000 1127.000
33.66000 1107.000
33.68000 1018.000
33.70000 966.000
33.72000 950.000
33.74000 876.000
33.76000 804.000
33.78000 847.000
33.80000 779.000
33.82000 750.000
33.84000 708.000
33.86000 677.000
33.88000 679.000
33.90000 627.000
33.92000 617.000
33.94000 631.000
33.96000 614.000
33.98000 604.000
34.00000 578.000
34.02000 594.000
34.04000 533.000
34.06000 544.000
34.08000 557.000
34.10000 583.000
34.12000 539.000
34.14000 561.000
34.16000 522.000
34.18000 504.000
34.20000 515.000
34.22000 559.000
34.24000 539.000
34.26000 511.000
34.28000 553.000
34.30000 515.000
34.32000 486.000
34.34000 486.000
34.36000 500.000
34.38000 478.000
34.40000 524.000
34.42000 514.000
34.44000 509.000
34.46000 494.000
34.48000 490.000
34.50000 528.000
34.52000 463.000
34.54000 513.000
34.56000 501.000
34.58000 479.000
34.60000 487.000
34.62000 505.000
34.64000 535.000
34.66000 510.000
34.68000 502.000
34.70000 529.000
34.72000 467.000
34.74000 446.000
34.76000 501.000
34.78000 475.000
34.80000 485.000
34.82000 510.000
34.84000 483.000
34.86000 494.000
34.88000 500.000
34.90000 485.000
34.92000 486.000
34.94000 495.000
34.96000 492.000
34.98000 538.000
35.00000 549.000
35.02000 553.000
35.04000 546.000
35.06000 606.000
35.08000 673.000
35.10000 632.000
35.12000 665.000
35.14000 625.000
35.16000 613.000
35.18000 555.000
35.20000 589.000
35.22000 510.000
35.24000 526.000
35.26000 497.000
35.28000 496.000
35.30000 440.000
35.32000 474.000
35.34000 486.000
35.36000 468.000
35.38000 467.000
35.40000 444.000
35.42000 460.000
35.44000 456.000
35.46000 455.000
35.48000 474.000
35.50000 464.000
35.52000 466.000
35.54000 454.000
35.56000 514.000
35.58000 492.000
35.60000 446.000
35.62000 463.000
35.64000 456.000
35.66000 482.000
35.68000 468.000
35.70000 474.000
35.72000 470.000
35.74000 455.000
35.76000 502.000
35.78000 483.000
35.80000 442.000
35.82000 461.000
35.84000 472.000
35.86000 462.000
35.88000 447.000
35.90000 452.000
35.92000 460.000
35.94000 486.000
35.96000 451.000
35.98000 468.000
36.00000 460.000
36.02000 507.000
36.04000 478.000
36.06000 465.000
36.08000 496.000
36.10000 470.000
36.12000 486.000
36.14000 487.000
36.16000 488.000
36.18000 515.000
36.20000 535.000
36.22000 526.000
36.24000 502.000
36.26000 504.000
36.28000 512.000
36.30000 482.000
36.32000 535.000
36.34000 538.000
36.36000 564.000
36.38000 542.000
36.40000 576.000
36.42000 587.000
36.44000 596.000
36.46000 616.000
36.48000 638.000
36.50000 699.000
36.52000 756.000
36.54000 899.000
36.56000 1158.000
36.58000 1482.000
36.60000 2007.000
36.62000 3019.000
36.64000 4329.000
36.66000 5910.000
36.68000 7091.000
36.70000 7100.000
36.72000 5691.000
36.74000 4559.000
36.76000 4143.000
36.78000 3932.000
36.80000 3356.000
36.82000 2324.000
36.84000 1416.000
36.86000 936.000
36.88000 722.000
36.90000 640.000
36.92000 635.000
36.94000 609.000
36.96000 576.000
36.98000 515.000
37.00000 524.000
37.02000 537.000
37.04000 495.000
37.06000 496.000
37.08000 520.000
37.10000 501.000
37.12000 541.000
37.14000 505.000
37.16000 429.000
37.18000 431.000
37.20000 452.000
37.22000 443.000
37.24000 463.000
37.26000 461.000
37.28000 454.000
37.30000 450.000
37.32000 442.000
37.34000 440.000
37.36000 445.000
37.38000 443.000
37.40000 455.000
37.42000 428.000
37.44000 415.000
37.46000 432.000
37.48000 480.000
37.50000 415.000
37.52000 430.000
37.54000 433.000
37.56000 434.000
37.58000 447.000
37.60000 409.000
37.62000 449.000
37.64000 430.000
37.66000 435.000
37.68000 444.000
37.70000 442.000
37.72000 454.000
37.74000 448.000
37.76000 458.000
37.78000 482.000
37.80000 473.000
37.82000 454.000
37.84000 472.000
37.86000 447.000
37.88000 441.000
37.90000 436.000
37.92000 447.000
37.94000 452.000
37.96000 443.000
37.98000 450.000
38.00000 492.000
38.02000 443.000
38.04000 449.000
38.06000 477.000
38.08000 503.000
38.10000 523.000
38.12000 556.000
38.14000 653.000
38.16000 817.000
38.18000 1013.000
38.20000 1343.000
38.22000 1734.000
38.24000 1976.000
38.26000 1745.000
38.28000 1381.000
38.30000 1230.000
38.32000 1193.000
38.34000 1235.000
38.36000 1059.000
38.38000 807.000
38.40000 580.000
38.42000 500.000
38.44000 465.000
38.46000 440.000
38.48000 425.000
38.50000 435.000
38.52000 437.000
38.54000 443.000
38.56000 445.000
38.58000 433.000
38.60000 392.000
38.62000 416.000
38.64000 419.000
38.66000 440.000
38.68000 418.000
38.70000 407.000
38.72000 403.000
38.74000 390.000
38.76000 406.000
38.78000 428.000
38.80000 407.000
38.82000 420.000
38.84000 414.000
38.86000 413.000
38.88000 414.000
38.90000 393.000
38.92000 389.000
38.94000 416.000
38.96000 409.000
38.98000 397.000
39.00000 395.000
39.02000 404.000
39.04000 373.000
39.06000 409.000
39.08000 421.000
39.10000 390.000
39.12000 418.000
39.14000 409.000
39.16000 405.000
39.18000 367.000
39.20000 394.000
39.22000 359.000
39.24000 400.000
39.26000 397.000
39.28000 420.000
39.30000 406.000
39.32000 405.000
39.34000 413.000
39.36000 379.000
39.38000 353.000
39.40000 379.000
39.42000 385.000
39.44000 395.000
39.46000 424.000
39.48000 384.000
39.50000 408.000
39.52000 390.000
39.54000 376.000
39.56000 384.000
39.58000 393.000
39.60000 408.000
39.62000 392.000
39.64000 400.000
39.66000 403.000
39.68000 405.000
39.70000 379.000
39.72000 404.000
39.74000 403.000
39.76000 428.000
39.78000 409.000
39.80000 406.000
39.82000 421.000
39.84000 396.000
39.86000 452.000
39.88000 414.000
39.90000 427.000
39.92000 394.000
39.94000 414.000
39.96000 392.000
39.98000 401.000
40.00000 426.000
40.02000 403.000
40.04000 412.000
40.06000 407.000
40.08000 430.000
40.10000 456.000
40.12000 413.000
40.14000 355.000
40.16000 412.000
40.18000 399.000
40.20000 412.000
40.22000 399.000
40.24000 385.000
40.26000 333.000
40.28000 402.000
40.30000 404.000
40.32000 422.000
40.34000 412.000
40.36000 414.000
40.38000 404.000
40.40000 407.000
40.42000 410.000
40.44000 410.000
40.46000 451.000
40.48000 430.000
40.50000 389.000
40.52000 384.000
40.54000 366.000
40.56000 444.000
40.58000 423.000
40.60000 434.000
40.62000 417.000
40.64000 440.000
40.66000 464.000
40.68000 449.000
40.70000 449.000
40.72000 447.000
40.74000 489.000
40.76000 476.000
40.78000 464.000
40.80000 453.000
40.82000 499.000
40.84000 508.000
40.86000 506.000
40.88000 527.000
40.90000 537.000
40.92000 571.000
40.94000 551.000
40.96000 584.000
40.98000 625.000
41.00000 683.000
41.02000 791.000
41.04000 835.000
41.06000 973.000
41.08000 1320.000
41.10000 1772.000
41.12000 2711.000
41.14000 4023.000
41.16000 5899.000
41.18000 7930.000
41.20000 8957.000
41.22000 8204.000
41.24000 6349.000
41.26000 4822.000
41.28000 4721.000
41.30000 4963.000
41.32000 4605.000
41.34000 3255.000
41.36000 2009.000
41.38000 1287.000
41.40000 880.000
41.42000 758.000
41.44000 666.000
41.46000 627.000
41.48000 606.000
41.50000 549.000
41.52000 545.000
41.54000 523.000
41.56000 526.000
41.58000 505.000
41.60000 504.000
41.62000 456.000
41.64000 462.000
41.66000 440.000
41.68000 454.000
41.70000 423.000
41.72000 441.000
41.74000 419.000
41.76000 413.000
41.78000 410.000
41.80000 416.000
41.82000 435.000
41.84000 420.000
41.86000 426.000
41.88000 416.000
41.90000 431.000
41.92000 401.000
41.94000 423.000
41.96000 412.000
41.98000 412.000
42.00000 406.000
42.02000 417.000
42.04000 442.000
42.06000 362.000
42.08000 410.000
42.10000 385.000
42.12000 365.000
42.14000 386.000
42.16000 387.000
42.18000 422.000
42.20000 393.000
42.22000 447.000
42.24000 410.000
42.26000 405.000
42.28000 422.000
42.30000 424.000
42.32000 441.000
42.34000 433.000
42.36000 418.000
42.38000 424.000
42.40000 445.000
42.42000 447.000
42.44000 490.000
42.46000 511.000
42.48000 548.000
42.50000 632.000
42.52000 771.000
42.54000 978.000
42.56000 1266.000
42.58000 1787.000
42.60000 2210.000
42.62000 2503.000
42.64000 2077.000
42.66000 1618.000
42.68000 1365.000
42.70000 1359.000
42.72000 1491.000
42.74000 1393.000
42.76000 1087.000
42.78000 739.000
42.80000 594.000
42.82000 526.000
42.84000 447.000
42.86000 450.000
42.88000 428.000
42.90000 437.000
42.92000 399.000
42.94000 426.000
42.96000 415.000
42.98000 394.000
43.00000 419.000
43.02000 432.000
43.04000 364.000
43.06000 345.000
43.08000 376.000
43.10000 397.000
43.12000 418.000
43.14000 388.000
43.16000 398.000
43.18000 417.000
43.20000 381.000
43.22000 363.000
43.24000 412.000
43.26000 451.000
43.28000 446.000
43.30000 443.000
43.32000 486.000
43.34000 541.000
43.36000 483.000
43.38000 440.000
43.40000 408.000
43.42000 452.000
43.44000 458.000
43.46000 477.000
43.48000 385.000
43.50000 406.000
43.52000 368.000
43.54000 378.000
43.56000 382.000
43.58000 366.000
43.60000 386.000
43.62000 391.000
43.64000 395.000
43.66000 393.000
43.68000 412.000
43.70000 373.000
43.72000 372.000
43.74000 385.000
43.76000 346.000
43.78000 363.000
43.80000 379.000
43.82000 386.000
43.84000 387.000
43.86000 350.000
43.88000 340.000
43.90000 368.000
43.92000 375.000
43.94000 380.000
43.96000 403.000
43.98000 355.000
44.00000 408.000
44.02000 379.000
44.04000 381.000
44.06000 391.000
44.08000 388.000
44.10000 384.000
44.12000 382.000
44.14000 377.000
44.16000 384.000
44.18000 364.000
44.20000 362.000
44.22000 376.000
44.24000 373.000
44.26000 365.000
44.28000 359.000
44.30000 398.000
44.32000 380.000
44.34000 366.000
44.36000 372.000
44.38000 371.000
44.40000 356.000
44.42000 372.000
44.44000 375.000
44.46000 366.000
44.48000 365.000
44.50000 380.000
44.52000 363.000
44.54000 367.000
44.56000 349.000
44.58000 369.000
44.60000 369.000
44.62000 371.000
44.64000 350.000
44.66000 381.000
44.68000 350.000
44.70000 346.000
44.72000 374.000
44.74000 370.000
44.76000 389.000
44.78000 372.000
44.80000 363.000
44.82000 382.000
44.84000 357.000
44.86000 369.000
44.88000 377.000
44.90000 366.000
44.92000 346.000
44.94000 351.000
44.96000 394.000
44.98000 380.000
45.00000 373.000
45.02000 390.000
45.04000 392.000
45.06000 395.000
45.08000 392.000
45.10000 397.000
45.12000 377.000
45.14000 363.000
45.16000 373.000
45.18000 376.000
45.20000 372.000
45.22000 386.000
45.24000 400.000
45.26000 388.000
45.28000 354.000
45.30000 389.000
45.32000 413.000
45.34000 401.000
45.36000 350.000
45.38000 364.000
45.40000 382.000
45.42000 379.000
45.44000 338.000
45.46000 380.000
45.48000 385.000
45.50000 385.000
45.52000 380.000
45.54000 413.000
45.56000 352.000
45.58000 403.000
45.60000 387.000
45.62000 421.000
45.64000 405.000
45.66000 368.000
45.68000 362.000
45.70000 384.000
45.72000 372.000
45.74000 409.000
45.76000 391.000
45.78000 376.000
45.80000 388.000
45.82000 385.000
45.84000 397.000
45.86000 438.000
45.88000 410.000
45.90000 390.000
45.92000 357.000
45.94000 376.000
45.96000 377.000
45.98000 408.000
46.00000 395.000
46.02000 376.000
46.04000 389.000
46.06000 418.000
46.08000 413.000
46.10000 400.000
46.12000 463.000
46.14000 409.000
46.16000 431.000
46.18000 456.000
46.20000 445.000
46.22000 475.000
46.24000 481.000
46.26000 484.000
46.28000 506.000
46.30000 505.000
46.32000 483.000
46.34000 518.000
46.36000 594.000
46.38000 578.000
46.40000 611.000
46.42000 634.000
46.44000 674.000
46.46000 708.000
46.48000 765.000
46.50000 818.000
46.52000 1102.000
46.54000 1403.000
46.56000 2043.000
46.58000 3171.000
46.60000 4779.000
46.62000 6985.000
46.64000 9295.000
46.66000 9989.000
46.68000 8107.000
46.70000 5729.000
46.72000 4520.000
46.74000 4435.000
46.76000 5145.000
46.78000 5369.000
46.80000 4480.000
46.82000 2931.000
46.84000 1756.000
46.86000 1120.000
46.88000 882.000
46.90000 724.000
46.92000 630.000
46.94000 601.000
46.96000 581.000
46.98000 547.000
47.00000 536.000
47.02000 506.000
47.04000 500.000
47.06000 525.000
47.08000 522.000
47.10000 462.000
47.12000 432.000
47.14000 449.000
47.16000 440.000
47.18000 433.000
47.20000 426.000
47.22000 379.000
47.24000 393.000
47.26000 398.000
47.28000 461.000
47.30000 419.000
47.32000 450.000
47.34000 477.000
47.36000 470.000
47.38000 446.000
47.40000 442.000
47.42000 437.000
47.44000 452.000
47.46000 443.000
47.48000 448.000
47.50000 440.000
47.52000 420.000
47.54000 383.000
47.56000 419.000
47.58000 387.000
47.60000 431.000
47.62000 416.000
47.64000 372.000
47.66000 403.000
47.68000 406.000
47.70000 377.000
47.72000 403.000
47.74000 397.000
47.76000 413.000
47.78000 422.000
47.80000 401.000
47.82000 400.000
47.84000 414.000
47.86000 450.000
47.88000 482.000
47.90000 538.000
47.92000 589.000
47.94000 660.000
47.96000 622.000
47.98000 593.000
48.00000 493.000
48.02000 492.000
48.04000 476.000
48.06000 490.000
48.08000 523.000
48.10000 492.000
48.12000 432.000
48.14000 393.000
48.16000 381.000
48.18000 387.000
48.20000 390.000
48.22000 388.000
48.24000 387.000
48.26000 367.000
48.28000 369.000
48.30000 375.000
48.32000 391.000
48.34000 371.000
48.36000 346.000
48.38000 354.000
48.40000 373.000
48.42000 378.000
48.44000 382.000
48.46000 381.000
48.48000 373.000
48.50000 368.000
48.52000 353.000
48.54000 391.000
48.56000 367.000
48.58000 420.000
48.60000 349.000
48.62000 359.000
48.64000 376.000
48.66000 377.000
48.68000 383.000
48.70000 349.000
48.72000 385.000
48.74000 366.000
48.76000 370.000
48.78000 363.000
48.80000 372.000
48.82000 371.000
48.84000 367.000
48.86000 362.000
48.88000 388.000
48.90000 385.000
48.92000 365.000
48.94000 357.000
48.96000 347.000
48.98000 365.000
49.00000 379.000
49.02000 359.000
49.04000 379.000
49.06000 401.000
49.08000 389.000
49.10000 361.000
49.12000 403.000
49.14000 370.000
49.16000 392.000
49.18000 346.000
49.20000 354.000
49.22000 385.000
49.24000 385.000
49.26000 360.000
49.28000 352.000
49.30000 357.000
49.32000 395.000
49.34000 379.000
49.36000 410.000
49.38000 393.000
49.40000 355.000
49.42000 373.000
49.44000 383.000
49.46000 365.000
49.48000 390.000
49.50000 388.000
49.52000 392.000
49.54000 368.000
49.56000 380.000
49.58000 371.000
49.60000 354.000
49.62000 359.000
49.64000 351.000
49.66000 352.000
49.68000 354.000
49.70000 342.000
49.72000 356.000
49.74000 373.000
49.76000 387.000
49.78000 372.000
49.80000 372.000
49.82000 349.000
49.84000 361.000
49.86000 366.000
49.88000 389.000
49.90000 405.000
49.92000 398.000
49.94000 376.000
49.96000 353.000
49.98000 361.000
50.00000 358.000
50.02000 367.000
50.04000 373.000
50.06000 341.000
50.08000 348.000
50.10000 349.000
50.12000 380.000
50.14000 359.000
50.16000 408.000
50.18000 346.000
50.20000 352.000
50.22000 336.000
50.24000 377.000
50.26000 365.000
50.28000 348.000
50.30000 353.000
50.32000 344.000
50.34000 385.000
50.36000 372.000
50.38000 325.000
50.40000 382.000
50.42000 361.000
50.44000 317.000
50.46000 346.000
50.48000 361.000
50.50000 368.000
50.52000 361.000
50.54000 362.000
50.56000 380.000
50.58000 394.000
50.60000 375.000
50.62000 353.000
50.64000 330.000
50.66000 327.000
50.68000 326.000
50.70000 328.000
50.72000 336.000
50.74000 359.000
50.76000 357.000
50.78000 349.000
50.80000 344.000
50.82000 371.000
50.84000 342.000
50.86000 353.000
50.88000 378.000
50.90000 382.000
50.92000 372.000
50.94000 342.000
50.96000 372.000
50.98000 355.000
51.00000 352.000
51.02000 337.000
51.04000 363.000
51.06000 388.000
51.08000 386.000
51.10000 372.000
51.12000 404.000
51.14000 381.000
51.16000 368.000
51.18000 356.000
51.20000 388.000
51.22000 401.000
51.24000 398.000
51.26000 395.000
51.28000 383.000
51.30000 384.000
51.32000 370.000
51.34000 397.000
51.36000 444.000
51.38000 401.000
51.40000 379.000
51.42000 416.000
51.44000 387.000
51.46000 391.000
51.48000 449.000
51.50000 423.000
51.52000 461.000
51.54000 486.000
51.56000 527.000
51.58000 696.000
51.60000 809.000
51.62000 1140.000
51.64000 1422.000
51.66000 1496.000
51.68000 1372.000
51.70000 1027.000
51.72000 832.000
51.74000 801.000
51.76000 875.000
51.78000 944.000
51.80000 935.000
51.82000 867.000
51.84000 674.000
51.86000 566.000
51.88000 505.000
51.90000 408.000
51.92000 419.000
51.94000 401.000
51.96000 393.000
51.98000 395.000
52.00000 382.000
52.02000 435.000
52.04000 380.000
52.06000 395.000
52.08000 391.000
52.10000 397.000
52.12000 399.000
52.14000 359.000
52.16000 370.000
52.18000 404.000
52.20000 393.000
52.22000 388.000
52.24000 372.000
52.26000 382.000
52.28000 398.000
52.30000 404.000
52.32000 394.000
52.34000 390.000
52.36000 382.000
52.38000 397.000
52.40000 403.000
52.42000 412.000
52.44000 414.000
52.46000 466.000
52.48000 484.000
52.50000 543.000
52.52000 577.000
52.54000 542.000
52.56000 545.000
52.58000 547.000
52.60000 552.000
52.62000 550.000
52.64000 570.000
52.66000 620.000
52.68000 677.000
52.70000 681.000
52.72000 817.000
52.74000 1022.000
52.76000 1502.000
52.78000 2289.000
52.80000 3726.000
52.82000 5385.000
52.84000 6728.000
52.86000 6988.000
52.88000 5628.000
52.90000 3886.000
52.92000 3012.000
52.94000 2872.000
52.96000 3259.000
52.98000 3774.000
53.00000 3716.000
53.02000 3101.000
53.04000 2147.000
53.06000 1382.000
53.08000 974.000
53.10000 762.000
53.12000 660.000
53.14000 580.000
53.16000 600.000
53.18000 541.000
53.20000 527.000
53.22000 508.000
53.24000 490.000
53.26000 475.000
53.28000 444.000
53.30000 443.000
53.32000 465.000
53.34000 439.000
53.36000 432.000
53.38000 421.000
53.40000 409.000
53.42000 435.000
53.44000 410.000
53.46000 421.000
53.48000 419.000
53.50000 412.000
53.52000 402.000
53.54000 438.000
53.56000 389.000
53.58000 389.000
53.60000 391.000
53.62000 407.000
53.64000 419.000
53.66000 381.000
53.68000 402.000
53.70000 396.000
53.72000 380.000
53.74000 367.000
53.76000 356.000
53.78000 401.000
53.80000 363.000
53.82000 391.000
53.84000 406.000
53.86000 437.000
53.88000 398.000
53.90000 377.000
53.92000 379.000
53.94000 408.000
53.96000 403.000
53.98000 394.000
54.00000 420.000
54.02000 418.000
54.04000 405.000
54.06000 383.000
54.08000 382.000
54.10000 388.000
54.12000 378.000
54.14000 389.000
54.16000 420.000
54.18000 408.000
54.20000 406.000
54.22000 413.000
54.24000 401.000
54.26000 358.000
54.28000 379.000
54.30000 361.000
54.32000 403.000
54.34000 408.000
54.36000 404.000
54.38000 379.000
54.40000 413.000
54.42000 384.000
54.44000 393.000
54.46000 415.000
54.48000 424.000
54.50000 384.000
54.52000 414.000
54.54000 416.000
54.56000 407.000
54.58000 407.000
54.60000 443.000
54.62000 423.000
54.64000 419.000
54.66000 409.000
54.68000 435.000
54.70000 445.000
54.72000 485.000
54.74000 507.000
54.76000 496.000
54.78000 502.000
54.80000 485.000
54.82000 510.000
54.84000 546.000
54.86000 598.000
54.88000 624.000
54.90000 602.000
54.92000 669.000
54.94000 651.000
54.96000 679.000
54.98000 782.000
55.00000 783.000
55.02000 856.000
55.04000 944.000
55.06000 1196.000
55.08000 1727.000
55.10000 2596.000
55.12000 4137.000
55.14000 6505.000
55.16000 9375.000
55.18000 11780.000
55.20000 11622.000
55.22000 9002.000
55.24000 5936.000
55.26000 4428.000
55.28000 4294.000
55.30000 5078.000
55.32000 6172.000
55.34000 6593.000
55.36000 5505.000
55.38000 3792.000
55.40000 2399.000
55.42000 1611.000
55.44000 1172.000
55.46000 940.000
55.48000 771.000
55.50000 701.000
55.52000 649.000
55.54000 658.000
55.56000 627.000
55.58000 618.000
55.60000 577.000
55.62000 538.000
55.64000 532.000
55.66000 503.000
55.68000 482.000
55.70000 486.000
55.72000 492.000
55.74000 503.000
55.76000 472.000
55.78000 445.000
55.80000 463.000
55.82000 435.000
55.84000 416.000
55.86000 473.000
55.88000 426.000
55.90000 467.000
55.92000 453.000
55.94000 424.000
55.96000 420.000
55.98000 435.000
56.00000 493.000
56.02000 482.000
56.04000 472.000
56.06000 480.000
56.08000 484.000
56.10000 536.000
56.12000 503.000
56.14000 541.000
56.16000 528.000
56.18000 590.000
56.20000 641.000
56.22000 760.000
56.24000 978.000
56.26000 1418.000
56.28000 2128.000
56.30000 2782.000
56.32000 3605.000
56.34000 3743.000
56.36000 3171.000
56.38000 2232.000
56.40000 1727.000
56.42000 1548.000
56.44000 1651.000
56.46000 1944.000
56.48000 2112.000
56.50000 2057.000
56.52000 1632.000
56.54000 1166.000
56.56000 877.000
56.58000 661.000
56.60000 624.000
56.62000 536.000
56.64000 525.000
56.66000 512.000
56.68000 482.000
56.70000 463.000
56.72000 465.000
56.74000 443.000
56.76000 438.000
56.78000 445.000
56.80000 431.000
56.82000 446.000
56.84000 451.000
56.86000 433.000
56.88000 446.000
56.90000 463.000
56.92000 445.000
56.94000 474.000
56.96000 411.000
56.98000 491.000
57.00000 485.000
57.02000 435.000
57.04000 502.000
57.06000 495.000
57.08000 508.000
57.10000 512.000
57.12000 554.000
57.14000 573.000
57.16000 593.000
57.18000 622.000
57.20000 625.000
57.22000 640.000
57.24000 667.000
57.26000 685.000
57.28000 705.000
57.30000 738.000
57.32000 888.000
57.34000 1138.000
57.36000 1536.000
57.38000 2517.000
57.40000 3990.000
57.42000 6219.000
57.44000 8584.000
57.46000 9879.000
57.48000 8916.000
57.50000 6507.000
57.52000 4401.000
57.54000 3427.000
57.56000 3450.000
57.58000 4161.000
57.60000 5071.000
57.62000 5332.000
57.64000 4703.000
57.66000 3331.000
57.68000 2147.000
57.70000 1403.000
57.72000 1075.000
57.74000 893.000
57.76000 708.000
57.78000 652.000
57.80000 609.000
57.82000 566.000
57.84000 547.000
57.86000 518.000
57.88000 496.000
57.90000 513.000
57.92000 454.000
57.94000 465.000
57.96000 442.000
57.98000 458.000
58.00000 457.000
58.02000 448.000
58.04000 424.000
58.06000 436.000
58.08000 414.000
58.10000 437.000
58.12000 405.000
58.14000 381.000
58.16000 396.000
58.18000 381.000
58.20000 429.000
58.22000 397.000
58.24000 383.000
58.26000 362.000
58.28000 406.000
58.30000 386.000
58.32000 396.000
58.34000 386.000
58.36000 395.000
58.38000 366.000
58.40000 372.000
58.42000 365.000
58.44000 352.000
58.46000 386.000
58.48000 398.000
58.50000 379.000
58.52000 371.000
58.54000 386.000
58.56000 355.000
58.58000 372.000
58.60000 354.000
58.62000 365.000
58.64000 372.000
58.66000 391.000
58.68000 337.000
58.70000 403.000
58.72000 384.000
58.74000 367.000
58.76000 391.000
58.78000 389.000
58.80000 360.000
58.82000 374.000
58.84000 385.000
58.86000 374.000
58.88000 371.000
58.90000 377.000
58.92000 374.000
58.94000 383.000
58.96000 358.000
58.98000 375.000
59.00000 393.000
59.02000 351.000
59.04000 371.000
59.06000 362.000
59.08000 352.000
59.10000 370.000
59.12000 384.000
59.14000 366.000
59.16000 402.000
59.18000 389.000
59.20000 356.000
59.22000 387.000
59.24000 368.000
59.26000 350.000
59.28000 369.000
59.30000 349.000
59.32000 358.000
59.34000 346.000
59.36000 352.000
59.38000 347.000
59.40000 338.000
59.42000 343.000
59.44000 358.000
59.46000 352.000
59.48000 341.000
59.50000 354.000
59.52000 356.000
59.54000 353.000
59.56000 376.000
59.58000 371.000
59.60000 373.000
59.62000 334.000
59.64000 340.000
59.66000 361.000
59.68000 385.000
59.70000 378.000
59.72000 349.000
59.74000 384.000
59.76000 390.000
59.78000 374.000
59.80000 405.000
59.82000 365.000
59.84000 356.000
59.86000 361.000
59.88000 354.000
59.90000 390.000
59.92000 383.000
59.94000 374.000
59.96000 332.000
59.98000 335.000
60.00000 372.000
60.02000 351.000
60.04000 333.000
60.06000 335.000
60.08000 378.000
60.10000 371.000
60.12000 347.000
60.14000 377.000
60.16000 387.000
60.18000 401.000
60.20000 343.000
60.22000 370.000
60.24000 376.000
60.26000 362.000
60.28000 381.000
60.30000 391.000
60.32000 403.000
60.34000 388.000
60.36000 367.000
60.38000 378.000
60.40000 411.000
60.42000 418.000
60.44000 424.000
60.46000 417.000
60.48000 427.000
60.50000 402.000
60.52000 393.000
60.54000 418.000
60.56000 439.000
60.58000 402.000
60.60000 400.000
60.62000 463.000
60.64000 481.000
60.66000 594.000
60.68000 691.000
60.70000 873.000
60.72000 1291.000
60.74000 1810.000
60.76000 2026.000
60.78000 2056.000
60.80000 1769.000
60.82000 1308.000
60.84000 1004.000
60.86000 848.000
60.88000 885.000
60.90000 1096.000
60.92000 1237.000
60.94000 1280.000
60.96000 1140.000
60.98000 895.000
61.00000 715.000
61.02000 566.000
61.04000 473.000
61.06000 463.000
61.08000 414.000
61.10000 456.000
61.12000 422.000
61.14000 444.000
61.16000 400.000
61.18000 382.000
61.20000 380.000
61.22000 421.000
61.24000 410.000
61.26000 406.000
61.28000 389.000
61.30000 402.000
61.32000 379.000
61.34000 390.000
61.36000 395.000
61.38000 408.000
61.40000 368.000
61.42000 395.000
61.44000 414.000
61.46000 444.000
61.48000 438.000
61.50000 470.000
61.52000 424.000
61.54000 445.000
61.56000 453.000
61.58000 464.000
61.60000 470.000
61.62000 499.000
61.64000 476.000
61.66000 492.000
61.68000 515.000
61.70000 566.000
61.72000 686.000
61.74000 834.000
61.76000 1161.000
61.78000 1697.000
61.80000 2520.000
61.82000 3565.000
61.84000 4168.000
61.86000 4166.000
61.88000 3179.000
61.90000 2281.000
61.92000 1641.000
61.94000 1411.000
61.96000 1485.000
61.98000 1863.000
62.00000 2287.000
62.02000 2351.000
62.04000 2101.000
62.06000 1648.000
62.08000 1128.000
62.10000 878.000
62.12000 643.000
62.14000 586.000
62.16000 543.000
62.18000 507.000
62.20000 467.000
62.22000 436.000
62.24000 434.000
62.26000 439.000
62.28000 434.000
62.30000 441.000
62.32000 390.000
62.34000 350.000
62.36000 368.000
62.38000 411.000
62.40000 390.000
62.42000 393.000
62.44000 381.000
62.46000 376.000
62.48000 372.000
62.50000 357.000
62.52000 353.000
62.54000 390.000
62.56000 382.000
62.58000 337.000
62.60000 380.000
62.62000 376.000
62.64000 339.000
62.66000 359.000
62.68000 362.000
62.70000 381.000
62.72000 369.000
62.74000 340.000
62.76000 359.000
62.78000 375.000
62.80000 333.000
62.82000 377.000
62.84000 398.000
62.86000 429.000
62.88000 458.000
62.90000 461.000
62.92000 459.000
62.94000 449.000
62.96000 430.000
62.98000 380.000
63.00000 380.000
63.02000 343.000
63.04000 369.000
63.06000 380.000
63.08000 381.000
63.10000 393.000
63.12000 404.000
63.14000 369.000
63.16000 360.000
63.18000 367.000
63.20000 361.000
63.22000 375.000
63.24000 351.000
63.26000 367.000
63.28000 356.000
63.30000 342.000
63.32000 317.000
63.34000 333.000
63.36000 377.000
63.38000 359.000
63.40000 340.000
63.42000 349.000
63.44000 359.000
63.46000 351.000
63.48000 316.000
63.50000 303.000
63.52000 320.000
63.54000 330.000
63.56000 342.000
63.58000 346.000
63.60000 346.000
63.62000 352.000
63.64000 346.000
63.66000 327.000
63.68000 337.000
63.70000 396.000
63.72000 330.000
63.74000 339.000
63.76000 364.000
63.78000 357.000
63.80000 364.000
63.82000 326.000
63.84000 367.000
63.86000 371.000
63.88000 344.000
63.90000 363.000
63.92000 375.000
63.94000 388.000
63.96000 420.000
63.98000 426.000
64.00000 413.000
64.02000 369.000
64.04000 391.000
64.06000 393.000
64.08000 423.000
64.10000 360.000
64.12000 373.000
64.14000 427.000
64.16000 385.000
64.18000 366.000
64.20000 350.000
64.22000 391.000
64.24000 355.000
64.26000 363.000
64.28000 338.000
64.30000 344.000
64.32000 333.000
64.34000 334.000
64.36000 347.000
64.38000 352.000
64.40000 356.000
64.42000 353.000
64.44000 352.000
64.46000 326.000
64.48000 329.000
64.50000 315.000
64.52000 346.000
64.54000 355.000
64.56000 340.000
64.58000 360.000
64.60000 343.000
64.62000 342.000
64.64000 333.000
64.66000 327.000
64.68000 350.000
64.70000 345.000
64.72000 341.000
64.74000 332.000
64.76000 351.000
64.78000 349.000
64.80000 349.000
64.82000 356.000
64.84000 340.000
64.86000 361.000
64.88000 402.000
64.90000 383.000
64.92000 359.000
64.94000 425.000
64.96000 515.000
64.98000 602.000
65.00000 676.000
65.02000 771.000
65.04000 735.000
65.06000 608.000
65.08000 495.000
65.10000 442.000
65.12000 437.000
65.14000 445.000
65.16000 494.000
65.18000 532.000
65.20000 573.000
65.22000 558.000
65.24000 502.000
65.26000 415.000
65.28000 391.000
65.30000 391.000
65.32000 365.000
65.34000 364.000
65.36000 330.000
65.38000 352.000
65.40000 336.000
65.42000 326.000
65.44000 327.000
65.46000 333.000
65.48000 337.000
65.50000 352.000
65.52000 359.000
65.54000 343.000
65.56000 349.000
65.58000 350.000
65.60000 355.000
65.62000 335.000
65.64000 368.000
65.66000 378.000
65.68000 370.000
65.70000 353.000
65.72000 366.000
65.74000 342.000
65.76000 334.000
65.78000 344.000
65.80000 362.000
65.82000 345.000
65.84000 370.000
65.86000 372.000
65.88000 332.000
65.90000 336.000
65.92000 346.000
65.94000 371.000
65.96000 427.000
65.98000 431.000
66.00000 523.000
66.02000 660.000
66.04000 733.000
66.06000 779.000
66.08000 677.000
66.10000 638.000
66.12000 491.000
66.14000 430.000
66.16000 426.000
66.18000 463.000
66.20000 466.000
66.22000 505.000
66.24000 598.000
66.26000 564.000
66.28000 483.000
66.30000 429.000
66.32000 396.000
66.34000 394.000
66.36000 360.000
66.38000 366.000
66.40000 370.000
66.42000 359.000
66.44000 380.000
66.46000 369.000
66.48000 379.000
66.50000 373.000
66.52000 377.000
66.54000 380.000
66.56000 336.000
66.58000 333.000
66.60000 330.000
66.62000 343.000
66.64000 368.000
66.66000 371.000
66.68000 375.000
66.70000 352.000
66.72000 359.000
66.74000 355.000
66.76000 348.000
66.78000 362.000
66.80000 335.000
66.82000 357.000
66.84000 319.000
66.86000 330.000
66.88000 340.000
66.90000 355.000
66.92000 349.000
66.94000 357.000
66.96000 321.000
66.98000 320.000
67.00000 329.000
67.02000 349.000
67.04000 357.000
67.06000 370.000
67.08000 372.000
67.10000 381.000
67.12000 369.000
67.14000 341.000
67.16000 363.000
67.18000 376.000
67.20000 365.000
67.22000 371.000
67.24000 351.000
67.26000 328.000
67.28000 396.000
67.30000 336.000
67.32000 353.000
67.34000 338.000
67.36000 333.000
67.38000 350.000
67.40000 329.000
67.42000 344.000
67.44000 342.000
67.46000 309.000
67.48000 338.000
67.50000 351.000
67.52000 315.000
67.54000 339.000
67.56000 342.000
67.58000 350.000
67.60000 324.000
67.62000 350.000
67.64000 354.000
67.66000 330.000
67.68000 324.000
67.70000 338.000
67.72000 333.000
67.74000 334.000
67.76000 314.000
67.78000 314.000
67.80000 305.000
67.82000 335.000
67.84000 342.000
67.86000 344.000
67.88000 314.000
67.90000 323.000
67.92000 341.000
67.94000 385.000
67.96000 317.000
67.98000 340.000
68.00000 316.000
68.02000 354.000
68.04000 327.000
68.06000 353.000
68.08000 369.000
68.10000 349.000
68.12000 371.000
68.14000 411.000
68.16000 375.000
68.18000 387.000
68.20000 362.000
68.22000 367.000
68.24000 329.000
68.26000 347.000
68.28000 325.000
68.30000 382.000
68.32000 370.000
68.34000 350.000
68.36000 393.000
68.38000 366.000
68.40000 359.000
68.42000 318.000
68.44000 326.000
68.46000 325.000
68.48000 325.000
68.50000 340.000
68.52000 333.000
68.54000 345.000
68.56000 373.000
68.58000 330.000
68.60000 334.000
68.62000 351.000
68.64000 366.000
68.66000 346.000
68.68000 336.000
68.70000 331.000
68.72000 333.000
68.74000 346.000
68.76000 344.000
68.78000 355.000
68.80000 362.000
68.82000 341.000
68.84000 354.000
68.86000 341.000
68.88000 368.000
68.90000 352.000
68.92000 330.000
68.94000 332.000
68.96000 316.000
68.98000 342.000
69.00000 379.000
69.02000 382.000
69.04000 382.000
69.06000 415.000
69.08000 507.000
69.10000 591.000
69.12000 657.000
69.14000 669.000
69.16000 578.000
69.18000 505.000
69.20000 437.000
69.22000 417.000
69.24000 425.000
69.26000 441.000
69.28000 430.000
69.30000 516.000
69.32000 472.000
69.34000 510.000
69.36000 526.000
69.38000 442.000
69.40000 396.000
69.42000 395.000
69.44000 388.000
69.46000 354.000
69.48000 356.000
69.50000 367.000
69.52000 351.000
69.54000 385.000
69.56000 387.000
69.58000 404.000
69.60000 343.000
69.62000 341.000
69.64000 366.000
69.66000 357.000
69.68000 371.000
69.70000 371.000
69.72000 384.000
69.74000 358.000
69.76000 381.000
69.78000 375.000
69.80000 379.000
69.82000 390.000
69.84000 415.000
69.86000 408.000
69.88000 416.000
69.90000 382.000
69.92000 413.000
69.94000 415.000
69.96000 460.000
69.98000 439.000
70.00000 506.000
70.02000 594.000
70.04000 664.000
70.06000 922.000
70.08000 1327.000
70.10000 1886.000
70.12000 2338.000
70.14000 2409.000
70.16000 2114.000
70.18000 1599.000
70.20000 1176.000
70.22000 968.000
70.24000 787.000
70.26000 840.000
70.28000 969.000
70.30000 1204.000
70.32000 1387.000
70.34000 1444.000
70.36000 1296.000
70.38000 1082.000
70.40000 803.000
70.42000 657.000
70.44000 539.000
70.46000 459.000
70.48000 446.000
70.50000 418.000
70.52000 411.000
70.54000 429.000
70.56000 421.000
70.58000 391.000
70.60000 369.000
70.62000 373.000
70.64000 360.000
70.66000 376.000
70.68000 368.000
70.70000 388.000
70.72000 377.000
70.74000 394.000
70.76000 376.000
70.78000 333.000
70.80000 335.000
70.82000 359.000
70.84000 359.000
70.86000 345.000
70.88000 325.000
70.90000 336.000
70.92000 335.000
70.94000 336.000
70.96000 353.000
70.98000 357.000
71.00000 343.000
71.02000 336.000
71.04000 357.000
71.06000 351.000
71.08000 331.000
71.10000 354.000
71.12000 337.000
71.14000 328.000
71.16000 344.000
71.18000 321.000
71.20000 325.000
71.22000 346.000
71.24000 351.000
71.26000 359.000
71.28000 372.000
71.30000 376.000
71.32000 362.000
71.34000 358.000
71.36000 368.000
71.38000 328.000
71.40000 340.000
71.42000 369.000
71.44000 349.000
71.46000 373.000
71.48000 414.000
71.50000 377.000
71.52000 371.000
71.54000 377.000
71.56000 352.000
71.58000 387.000
71.60000 397.000
71.62000 384.000
71.64000 375.000
71.66000 396.000
71.68000 383.000
71.70000 424.000
71.72000 413.000
71.74000 457.000
71.76000 449.000
71.78000 468.000
71.80000 485.000
71.82000 482.000
71.84000 491.000
71.86000 512.000
71.88000 520.000
71.90000 480.000
71.92000 546.000
71.94000 592.000
71.96000 613.000
71.98000 704.000
72.00000 809.000
72.02000 993.000
72.04000 1425.000
72.06000 2172.000
72.08000 3390.000
72.10000 4906.000
72.12000 6262.000
72.14000 6439.000
72.16000 5693.000
72.18000 4184.000
72.20000 2894.000
72.22000 2154.000
72.24000 1725.000
72.26000 1730.000
72.28000 2042.000
72.30000 2524.000
72.32000 3175.000
72.34000 3455.000
72.36000 3285.000
72.38000 2639.000
72.40000 2012.000
72.42000 1418.000
72.44000 1066.000
72.46000 854.000
72.48000 683.000
72.50000 604.000
72.52000 584.000
72.54000 554.000
72.56000 506.000
72.58000 503.000
72.60000 422.000
72.62000 403.000
72.64000 405.000
72.66000 413.000
72.68000 430.000
72.70000 420.000
72.72000 414.000
72.74000 412.000
72.76000 394.000
72.78000 413.000
72.80000 387.000
72.82000 366.000
72.84000 378.000
72.86000 361.000
72.88000 384.000
72.90000 408.000
72.92000 406.000
72.94000 431.000
72.96000 435.000
72.98000 419.000
73.00000 440.000
73.02000 465.000
73.04000 598.000
73.06000 782.000
73.08000 1018.000
73.10000 1288.000
73.12000 1555.000
73.14000 1497.000
73.16000 1203.000
73.18000 926.000
73.20000 722.000
73.22000 644.000
73.24000 634.000
73.26000 605.000
73.28000 663.000
73.30000 754.000
73.32000 896.000
73.34000 923.000
73.36000 846.000
73.38000 725.000
73.40000 567.000
73.42000 553.000
73.44000 445.000
73.46000 429.000
73.48000 406.000
73.50000 398.000
73.52000 372.000
73.54000 395.000
73.56000 348.000
73.58000 357.000
73.60000 351.000
73.62000 359.000
73.64000 382.000
73.66000 385.000
73.68000 380.000
73.70000 350.000
73.72000 390.000
73.74000 369.000
73.76000 358.000
73.78000 377.000
73.80000 380.000
73.82000 358.000
73.84000 353.000
73.86000 390.000
73.88000 350.000
73.90000 355.000
73.92000 386.000
73.94000 409.000
73.96000 425.000
73.98000 481.000
74.00000 508.000
74.02000 651.000
74.04000 886.000
74.06000 1211.000
74.08000 1573.000
74.10000 1866.000
74.12000 1870.000
74.14000 1621.000
74.16000 1270.000
74.18000 896.000
74.20000 767.000
74.22000 653.000
74.24000 677.000
74.26000 711.000
74.28000 886.000
74.30000 1009.000
74.32000 1117.000
74.34000 1077.000
74.36000 964.000
74.38000 751.000
74.40000 619.000
74.42000 542.000
74.44000 452.000
74.46000 457.000
74.48000 418.000
74.50000 389.000
74.52000 383.000
74.54000 360.000
74.56000 375.000
74.58000 346.000
74.60000 339.000
74.62000 375.000
74.64000 341.000
74.66000 367.000
74.68000 357.000
74.70000 358.000
74.72000 333.000
74.74000 380.000
74.76000 354.000
74.78000 358.000
74.80000 343.000
74.82000 333.000
74.84000 350.000
74.86000 313.000
74.88000 337.000
74.90000 340.000
74.92000 334.000
74.94000 346.000
74.96000 373.000
74.98000 338.000
75.00000 368.000
75.02000 412.000
75.04000 466.000
75.06000 491.000
75.08000 555.000
75.10000 542.000
75.12000 506.000
75.14000 444.000
75.16000 407.000
75.18000 396.000
75.20000 390.000
75.22000 383.000
75.24000 374.000
75.26000 394.000
75.28000 413.000
75.30000 427.000
75.32000 402.000
75.34000 405.000
75.36000 392.000
75.38000 363.000
75.40000 350.000
75.42000 340.000
75.44000 333.000
75.46000 357.000
75.48000 323.000
75.50000 362.000
75.52000 352.000
75.54000 321.000
75.56000 315.000
75.58000 322.000
75.60000 329.000
75.62000 322.000
75.64000 343.000
75.66000 340.000
75.68000 318.000
75.70000 314.000
75.72000 326.000
75.74000 345.000
75.76000 359.000
75.78000 348.000
75.80000 313.000
75.82000 290.000
75.84000 324.000
75.86000 306.000
75.88000 324.000
75.90000 328.000
75.92000 336.000
75.94000 338.000
75.96000 306.000
75.98000 339.000
76.00000 316.000
76.02000 304.000
76.04000 351.000
76.06000 354.000
76.08000 341.000
76.10000 312.000
76.12000 320.000
76.14000 371.000
76.16000 342.000
76.18000 331.000
76.20000 305.000
76.22000 314.000
76.24000 314.000
76.26000 338.000
76.28000 345.000
76.30000 315.000
76.32000 304.000
76.34000 343.000
76.36000 319.000
76.38000 336.000
76.40000 341.000
76.42000 358.000
76.44000 317.000
76.46000 343.000
76.48000 342.000
76.50000 328.000
76.52000 316.000
76.54000 343.000
76.56000 332.000
76.58000 326.000
76.60000 335.000
76.62000 325.000
76.64000 357.000
76.66000 361.000
76.68000 348.000
76.70000 340.000
76.72000 350.000
76.74000 375.000
76.76000 354.000
76.78000 369.000
76.80000 395.000
76.82000 367.000
76.84000 403.000
76.86000 388.000
76.88000 406.000
76.90000 404.000
76.92000 443.000
76.94000 496.000
76.96000 618.000
76.98000 813.000
77.00000 1045.000
77.02000 1226.000
77.04000 1311.000
77.06000 1314.000
77.08000 1078.000
77.10000 830.000
77.12000 655.000
77.14000 595.000
77.16000 533.000
77.18000 562.000
77.20000 596.000
77.22000 682.000
77.24000 804.000
77.26000 877.000
77.28000 838.000
77.30000 700.000
77.32000 681.000
77.34000 543.000
77.36000 507.000
77.38000 447.000
77.40000 391.000
77.42000 389.000
77.44000 382.000
77.46000 375.000
77.48000 335.000
77.50000 334.000
77.52000 369.000
77.54000 378.000
77.56000 375.000
77.58000 331.000
77.60000 324.000
77.62000 309.000
77.64000 337.000
77.66000 317.000
77.68000 331.000
77.70000 354.000
77.72000 339.000
77.74000 347.000
77.76000 360.000
77.78000 331.000
77.80000 340.000
77.82000 327.000
77.84000 346.000
77.86000 334.000
77.88000 326.000
77.90000 336.000
77.92000 330.000
77.94000 346.000
77.96000 356.000
77.98000 421.000
78.00000 421.000
78.02000 451.000
78.04000 409.000
78.06000 384.000
78.08000 376.000
78.10000 381.000
78.12000 365.000
78.14000 337.000
78.16000 361.000
78.18000 362.000
78.20000 329.000
78.22000 364.000
78.24000 371.000
78.26000 362.000
78.28000 379.000
78.30000 353.000
78.32000 334.000
78.34000 331.000
78.36000 316.000
78.38000 300.000
78.40000 336.000
78.42000 311.000
78.44000 301.000
78.46000 329.000
78.48000 326.000
78.50000 317.000
78.52000 290.000
78.54000 320.000
78.56000 346.000
78.58000 319.000
78.60000 321.000
78.62000 298.000
78.64000 316.000
78.66000 345.000
78.68000 348.000
78.70000 332.000
78.72000 341.000
78.74000 317.000
78.76000 346.000
78.78000 362.000
78.80000 342.000
78.82000 364.000
78.84000 358.000
78.86000 365.000
78.88000 383.000
78.90000 459.000
78.92000 466.000
78.94000 586.000
78.96000 597.000
78.98000 606.000
79.00000 589.000
79.02000 518.000
79.04000 468.000
79.06000 441.000
79.08000 379.000
79.10000 403.000
79.12000 374.000
79.14000 400.000
79.16000 405.000
79.18000 426.000
79.20000 462.000
79.22000 464.000
79.24000 423.000
79.26000 402.000
79.28000 412.000
79.30000 378.000
79.32000 355.000
79.34000 364.000
79.36000 312.000
79.38000 314.000
79.40000 320.000
79.42000 341.000
79.44000 333.000
79.46000 317.000
79.48000 340.000
79.50000 324.000
79.52000 298.000
79.54000 350.000
79.56000 337.000
79.58000 354.000
79.60000 339.000
79.62000 321.000
79.64000 326.000
79.66000 307.000
79.68000 328.000
79.70000 329.000
79.72000 322.000
79.74000 305.000
79.76000 309.000
79.78000 313.000
79.80000 330.000
79.82000 319.000
79.84000 351.000
79.86000 329.000
79.88000 324.000
79.90000 325.000
79.92000 312.000
79.94000 321.000
79.96000 325.000
79.98000 330.000
80.00000 320.000
80.02000 300.000
80.04000 330.000
80.06000 318.000
80.08000 337.000
80.10000 332.000
80.12000 310.000
80.14000 307.000
80.16000 311.000
80.18000 325.000
80.20000 332.000
80.22000 339.000
80.24000 291.000
80.26000 304.000
80.28000 293.000
80.30000 310.000
80.32000 303.000
80.34000 305.000
80.36000 306.000
80.38000 304.000
80.40000 288.000
80.42000 311.000
80.44000 346.000
80.46000 319.000
80.48000 328.000
80.50000 336.000
80.52000 335.000
80.54000 346.000
80.56000 308.000
80.58000 340.000
80.60000 338.000
80.62000 330.000
80.64000 333.000
80.66000 320.000
80.68000 318.000
80.70000 354.000
80.72000 337.000
80.74000 355.000
80.76000 383.000
80.78000 408.000
80.80000 346.000
80.82000 425.000
80.84000 487.000
80.86000 569.000
80.88000 653.000
80.90000 645.000
80.92000 610.000
80.94000 586.000
80.96000 496.000
80.98000 436.000
81.00000 420.000
81.02000 368.000
81.04000 405.000
81.06000 399.000
81.08000 440.000
81.10000 423.000
81.12000 471.000
81.14000 496.000
81.16000 449.000
81.18000 489.000
81.20000 450.000
81.22000 402.000
81.24000 386.000
81.26000 374.000
81.28000 356.000
81.30000 355.000
81.32000 351.000
81.34000 391.000
81.36000 334.000
81.38000 337.000
81.40000 332.000
81.42000 364.000
81.44000 358.000
81.46000 334.000
81.48000 336.000
81.50000 387.000
81.52000 344.000
81.54000 328.000
81.56000 326.000
81.58000 351.000
81.60000 329.000
81.62000 362.000
81.64000 379.000
81.66000 348.000
81.68000 332.000
81.70000 404.000
81.72000 392.000
81.74000 477.000
81.76000 566.000
81.78000 704.000
81.80000 915.000
81.82000 1100.000
81.84000 1327.000
81.86000 1395.000
81.88000 1198.000
81.90000 997.000
81.92000 833.000
81.94000 680.000
81.96000 589.000
81.98000 576.000
82.00000 575.000
82.02000 552.000
82.04000 644.000
82.06000 722.000
82.08000 812.000
82.10000 832.000
82.12000 793.000
82.14000 690.000
82.16000 632.000
82.18000 536.000
82.20000 468.000
82.22000 416.000
82.24000 385.000
82.26000 374.000
82.28000 329.000
82.30000 348.000
82.32000 333.000
82.34000 313.000
82.36000 336.000
82.38000 316.000
82.40000 324.000
82.42000 331.000
82.44000 360.000
82.46000 322.000
82.48000 325.000
82.50000 348.000
82.52000 340.000
82.54000 318.000
82.56000 333.000
82.58000 326.000
82.60000 318.000
82.62000 309.000
82.64000 324.000
82.66000 324.000
82.68000 349.000
82.70000 327.000
82.72000 334.000
82.74000 334.000
82.76000 317.000
82.78000 355.000
82.80000 359.000
82.82000 361.000
82.84000 341.000
82.86000 344.000
82.88000 336.000
82.90000 332.000
82.92000 343.000
82.94000 349.000
82.96000 309.000
82.98000 328.000
83.00000 343.000
83.02000 329.000
83.04000 318.000
83.06000 331.000
83.08000 342.000
83.10000 313.000
83.12000 355.000
83.14000 324.000
83.16000 294.000
83.18000 311.000
83.20000 346.000
83.22000 310.000
83.24000 308.000
83.26000 310.000
83.28000 317.000
83.30000 345.000
83.32000 357.000
83.34000 340.000
83.36000 315.000
83.38000 316.000
83.40000 327.000
83.42000 310.000
83.44000 310.000
83.46000 315.000
83.48000 302.000
83.50000 327.000
83.52000 323.000
83.54000 320.000
83.56000 321.000
83.58000 351.000
83.60000 327.000
83.62000 314.000
83.64000 314.000
83.66000 333.000
83.68000 300.000
83.70000 328.000
83.72000 305.000
83.74000 316.000
83.76000 328.000
83.78000 311.000
83.80000 333.000
83.82000 325.000
83.84000 310.000
83.86000 334.000
83.88000 327.000
83.90000 326.000
83.92000 324.000
83.94000 323.000
83.96000 306.000
83.98000 325.000
84.00000 333.000
84.02000 340.000
84.04000 319.000
84.06000 340.000
84.08000 334.000
84.10000 314.000
84.12000 343.000
84.14000 337.000
84.16000 342.000
84.18000 325.000
84.20000 360.000
84.22000 325.000
84.24000 371.000
84.26000 344.000
84.28000 344.000
84.30000 371.000
84.32000 363.000
84.34000 409.000
84.36000 353.000
84.38000 331.000
84.40000 336.000
84.42000 336.000
84.44000 343.000
84.46000 348.000
84.48000 386.000
84.50000 382.000
84.52000 393.000
84.54000 408.000
84.56000 426.000
84.58000 475.000
84.60000 512.000
84.62000 696.000
84.64000 845.000
84.66000 1112.000
84.68000 1355.000
84.70000 1558.000
84.72000 1624.000
84.74000 1431.000
84.76000 1148.000
84.78000 867.000
84.80000 775.000
84.82000 653.000
84.84000 548.000
84.86000 573.000
84.88000 592.000
84.90000 648.000
84.92000 760.000
84.94000 853.000
84.96000 942.000
84.98000 929.000
85.00000 882.000
85.02000 729.000
85.04000 737.000
85.06000 576.000
85.08000 483.000
85.10000 426.000
85.12000 404.000
85.14000 407.000
85.16000 390.000
85.18000 409.000
85.20000 368.000
85.22000 381.000
85.24000 356.000
85.26000 338.000
85.28000 344.000
85.30000 326.000
85.32000 338.000
85.34000 332.000
85.36000 346.000
85.38000 374.000
85.40000 365.000
85.42000 325.000
85.44000 361.000
85.46000 338.000
85.48000 342.000
85.50000 332.000
85.52000 316.000
85.54000 349.000
85.56000 355.000
85.58000 319.000
85.60000 341.000
85.62000 366.000
85.64000 363.000
85.66000 352.000
85.68000 338.000
85.70000 344.000
85.72000 356.000
85.74000 333.000
85.76000 326.000
85.78000 328.000
85.80000 349.000
85.82000 355.000
85.84000 322.000
85.86000 340.000
85.88000 350.000
85.90000 307.000
85.92000 325.000
85.94000 335.000
85.96000 329.000
85.98000 301.000
86.00000 334.000
86.02000 327.000
86.04000 327.000
86.06000 368.000
86.08000 331.000
86.10000 313.000
86.12000 329.000
86.14000 340.000
86.16000 342.000
86.18000 346.000
86.20000 319.000
86.22000 323.000
86.24000 344.000
86.26000 328.000
86.28000 344.000
86.30000 341.000
86.32000 372.000
86.34000 331.000
86.36000 360.000
86.38000 342.000
86.40000 347.000
86.42000 329.000
86.44000 316.000
86.46000 331.000
86.48000 361.000
86.50000 342.000
86.52000 335.000
86.54000 341.000
86.56000 373.000
86.58000 358.000
86.60000 328.000
86.62000 353.000
86.64000 370.000
86.66000 349.000
86.68000 371.000
86.70000 360.000
86.72000 373.000
86.74000 364.000
86.76000 350.000
86.78000 357.000
86.80000 396.000
86.82000 389.000
86.84000 370.000
86.86000 369.000
86.88000 353.000
86.90000 360.000
86.92000 372.000
86.94000 369.000
86.96000 381.000
86.98000 375.000
87.00000 363.000
87.02000 351.000
87.04000 400.000
87.06000 459.000
87.08000 422.000
87.10000 435.000
87.12000 412.000
87.14000 453.000
87.16000 405.000
87.18000 461.000
87.20000 398.000
87.22000 410.000
87.24000 433.000
87.26000 448.000
87.28000 472.000
87.30000 482.000
87.32000 520.000
87.34000 528.000
87.36000 614.000
87.38000 676.000
87.40000 749.000
87.42000 955.000
87.44000 1178.000
87.46000 1605.000
87.48000 2204.000
87.50000 3274.000
87.52000 4384.000
87.54000 5148.000
87.56000 5425.000
87.58000 4679.000
87.60000 3856.000
87.62000 2819.000
87.64000 2133.000
87.66000 1698.000
87.68000 1383.000
87.70000 1229.000
87.72000 1185.000
87.74000 1358.000
87.76000 1664.000
87.78000 2173.000
87.80000 2582.000
87.82000 2851.000
87.84000 2858.000
87.86000 2459.000
87.88000 1995.000
87.90000 1549.000
87.92000 1156.000
87.94000 967.000
87.96000 799.000
87.98000 703.000
88.00000 638.000
88.02000 593.000
88.04000 549.000
88.06000 473.000
88.08000 494.000
88.10000 414.000
88.12000 477.000
88.14000 450.000
88.16000 428.000
88.18000 418.000
88.20000 429.000
88.22000 391.000
88.24000 391.000
88.26000 418.000
88.28000 405.000
88.30000 415.000
88.32000 407.000
88.34000 402.000
88.36000 448.000
88.38000 460.000
88.40000 502.000
88.42000 577.000
88.44000 656.000
88.46000 805.000
88.48000 908.000
88.50000 920.000
88.52000 926.000
88.54000 778.000
88.56000 697.000
88.58000 605.000
88.60000 568.000
88.62000 494.000
88.64000 475.000
88.66000 452.000
88.68000 459.000
88.70000 483.000
88.72000 514.000
88.74000 602.000
88.76000 665.000
88.78000 646.000
88.80000 680.000
88.82000 582.000
88.84000 518.000
88.86000 489.000
88.88000 414.000
88.90000 421.000
88.92000 425.000
88.94000 445.000
88.96000 420.000
88.98000 377.000
89.00000 411.000
89.02000 395.000
89.04000 387.000
89.06000 385.000
89.08000 378.000
89.10000 375.000
89.12000 391.000
89.14000 385.000
89.16000 385.000
89.18000 376.000
89.20000 424.000
89.22000 387.000
89.24000 411.000
89.26000 442.000
89.28000 465.000
89.30000 522.000
89.32000 556.000
89.34000 698.000
89.36000 848.000
89.38000 1099.000
89.40000 1443.000
89.42000 1899.000
89.44000 2144.000
89.46000 1993.000
89.48000 1737.000
89.50000 1418.000
89.52000 1123.000
89.54000 904.000
89.56000 755.000
89.58000 674.000
89.60000 612.000
89.62000 633.000
89.64000 692.000
89.66000 771.000
89.68000 974.000
89.70000 1081.000
89.72000 1156.000
89.74000 1172.000
89.76000 1123.000
89.78000 894.000
89.80000 774.000
89.82000 673.000
89.84000 570.000
89.86000 511.000
89.88000 478.000
89.90000 446.000
89.92000 417.000
89.94000 371.000
89.96000 381.000
89.98000 356.000
