5.00000 337.000
5.02000 331.000
5.04000 329.000
5.06000 343.000
5.08000 359.000
5.10000 350.000
5.12000 346.000
5.14000 347.000
5.16000 328.000
5.18000 329.000
5.20000 347.000
5.22000 351.000
5.24000 345.000
5.26000 350.000
5.28000 336.000
5.30000 328.000
5.32000 328.000
5.34000 297.000
5.36000 335.000
5.38000 316.000
5.40000 333.000
5.42000 298.000
5.44000 340.000
5.46000 343.000
5.48000 345.000
5.50000 328.000
5.52000 331.000
5.54000 329.000
5.56000 339.000
5.58000 312.000
5.60000 331.000
5.62000 329.000
5.64000 361.000
5.66000 321.000
5.68000 333.000
5.70000 289.000
5.72000 316.000
5.74000 350.000
5.76000 320.000
5.78000 317.000
5.80000 322.000
5.82000 335.000
5.84000 320.000
5.86000 329.000
5.88000 323.000
5.90000 288.000
5.92000 346.000
5.94000 319.000
5.96000 327.000
5.98000 326.000
6.00000 337.000
6.02000 327.000
6.04000 314.000
6.06000 331.000
6.08000 324.000
6.10000 322.000
6.12000 359.000
6.14000 340.000
6.16000 344.000
6.18000 338.000
6.20000 343.000
6.22000 334.000
6.24000 344.000
6.26000 326.000
6.28000 322.000
6.30000 308.000
6.32000 325.000
6.34000 317.000
6.36000 332.000
6.38000 318.000
6.40000 322.000
6.42000 341.000
6.44000 310.000
6.46000 305.000
6.48000 328.000
6.50000 292.000
6.52000 300.000
6.54000 335.000
6.56000 318.000
6.58000 316.000
6.60000 310.000
6.62000 314.000
6.64000 320.000
6.66000 297.000
6.68000 337.000
6.70000 342.000
6.72000 315.000
6.74000 285.000
6.76000 329.000
6.78000 321.000
6.80000 343.000
6.82000 368.000
6.84000 339.000
6.86000 345.000
6.88000 352.000
6.90000 339.000
6.92000 334.000
6.94000 297.000
6.96000 306.000
6.98000 332.000
7.00000 312.000
7.02000 307.000
7.04000 322.000
7.06000 320.000
7.08000 327.000
7.10000 318.000
7.12000 342.000
7.14000 342.000
7.16000 352.000
7.18000 332.000
7.20000 298.000
7.22000 339.000
7.24000 334.000
7.26000 323.000
7.28000 330.000
7.30000 320.000
7.32000 324.000
7.34000 345.000
7.36000 359.000
7.38000 348.000
7.40000 332.000
7.42000 353.000
7.44000 334.000
7.46000 332.000
7.48000 335.000
7.50000 324.000
7.52000 326.000
7.54000 324.000
7.56000 312.000
7.58000 328.000
7.60000 336.000
7.62000 355.000
7.64000 296.000
7.66000 302.000
7.68000 327.000
7.70000 316.000
7.72000 331.000
7.74000 333.000
7.76000 324.000
7.78000 349.000
7.80000 323.000
7.82000 274.000
7.84000 319.000
7.86000 345.000
7.88000 327.000
7.90000 322.000
7.92000 331.000
7.94000 339.000
7.96000 326.000
7.98000 343.000
8.00000 323.000
8.02000 323.000
8.04000 307.000
8.06000 358.000
8.08000 336.000
8.10000 339.000
8.12000 310.000
8.14000 343.000
8.16000 327.000
8.18000 354.000
8.20000 386.000
8.22000 333.000
8.24000 316.000
8.26000 302.000
8.28000 351.000
8.30000 364.000
8.32000 337.000
8.34000 352.000
8.36000 356.000
8.38000 356.000
8.40000 336.000
8.42000 318.000
8.44000 307.000
8.46000 335.000
8.48000 350.000
8.50000 309.000
8.52000 310.000
8.54000 347.000
8.56000 343.000
8.58000 335.000
8.60000 354.000
8.62000 319.000
8.64000 342.000
8.66000 347.000
8.68000 308.000
8.70000 305.000
8.72000 353.000
8.74000 351.000
8.76000 357.000
8.78000 329.000
8.80000 309.000
8.82000 311.000
8.84000 341.000
8.86000 349.000
8.88000 344.000
8.90000 331.000
8.92000 348.000
8.94000 328.000
8.96000 331.000
8.98000 342.000
9.00000 349.000
9.02000 328.000
9.04000 332.000
9.06000 345.000
9.08000 316.000
9.10000 337.000
9.12000 350.000
9.14000 377.000
9.16000 347.000
9.18000 316.000
9.20000 361.000
9.22000 324.000
9.24000 366.000
9.26000 364.000
9.28000 350.000
9.30000 327.000
9.32000 341.000
9.34000 344.000
9.36000 354.000
9.38000 348.000
9.40000 312.000
9.42000 356.000
9.44000 340.000
9.46000 345.000
9.48000 368.000
9.50000 358.000
9.52000 358.000
9.54000 336.000
9.56000 351.000
9.58000 326.000
9.60000 344.000
9.62000 350.000
9.64000 355.000
9.66000 336.000
9.68000 338.000
9.70000 326.000
9.72000 363.000
9.74000 322.000
9.76000 315.000
9.78000 321.000
9.80000 315.000
9.82000 318.000
9.84000 340.000
9.86000 333.000
9.88000 347.000
9.90000 312.000
9.92000 372.000
9.94000 349.000
9.96000 340.000
9.98000 357.000
10.00000 363.000
10.02000 354.000
10.04000 355.000
10.06000 350.000
10.08000 346.000
10.10000 341.000
10.12000 365.000
10.14000 338.000
10.16000 350.000
10.18000 334.000
10.20000 344.000
10.22000 351.000
10.24000 336.000
10.26000 349.000
10.28000 374.000
10.30000 336.000
10.32000 374.000
10.34000 343.000
10.36000 362.000
10.38000 358.000
10.40000 341.000
10.42000 334.000
10.44000 333.000
10.46000 364.000
10.48000 340.000
10.50000 385.000
10.52000 330.000
10.54000 327.000
10.56000 330.000
10.58000 347.000
10.60000 338.000
10.62000 344.000
10.64000 351.000
10.66000 337.000
10.68000 348.000
10.70000 332.000
10.72000 335.000
10.74000 358.000
10.76000 361.000
10.78000 333.000
10.80000 349.000
10.82000 351.000
10.84000 322.000
10.86000 320.000
10.88000 347.000
10.90000 347.000
10.92000 374.000
10.94000 329.000
10.96000 334.000
10.98000 337.000
11.00000 345.000
11.02000 336.000
11.04000 334.000
11.06000 328.000
11.08000 293.000
11.10000 337.000
11.12000 323.000
11.14000 309.000
11.16000 341.000
11.18000 360.000
11.20000 335.000
11.22000 333.000
11.24000 339.000
11.26000 351.000
11.28000 346.000
11.30000 351.000
11.32000 325.000
11.34000 330.000
11.36000 334.000
11.38000 339.000
11.40000 317.000
11.42000 344.000
11.44000 354.000
11.46000 332.000
11.48000 347.000
11.50000 356.000
11.52000 311.000
11.54000 352.000
11.56000 358.000
11.58000 355.000
11.60000 333.000
11.62000 360.000
11.64000 370.000
11.66000 353.000
11.68000 350.000
11.70000 320.000
11.72000 304.000
11.74000 300.000
11.76000 329.000
11.78000 359.000
11.80000 326.000
11.82000 334.000
11.84000 307.000
11.86000 323.000
11.88000 323.000
11.90000 342.000
11.92000 354.000
11.94000 384.000
11.96000 341.000
11.98000 331.000
12.00000 335.000
12.02000 351.000
12.04000 355.000
12.06000 348.000
12.08000 359.000
12.10000 343.000
12.12000 359.000
12.14000 331.000
12.16000 331.000
12.18000 371.000
12.20000 333.000
12.22000 319.000
12.24000 330.000
12.26000 334.000
12.28000 341.000
12.30000 333.000
12.32000 339.000
12.34000 343.000
12.36000 334.000
12.38000 336.000
12.40000 350.000
12.42000 376.000
12.44000 357.000
12.46000 338.000
12.48000 330.000
12.50000 355.000
12.52000 340.000
12.54000 325.000
12.56000 322.000
12.58000 369.000
12.60000 339.000
12.62000 332.000
12.64000 308.000
12.66000 365.000
12.68000 343.000
12.70000 345.000
12.72000 351.000
12.74000 332.000
12.76000 327.000
12.78000 324.000
12.80000 349.000
12.82000 343.000
12.84000 310.000
12.86000 332.000
12.88000 339.000
12.90000 322.000
12.92000 337.000
12.94000 357.000
12.96000 337.000
12.98000 342.000
13.00000 364.000
13.02000 339.000
13.04000 349.000
13.06000 332.000
13.08000 372.000
13.10000 359.000
13.12000 340.000
13.14000 339.000
13.16000 355.000
13.18000 348.000
13.20000 341.000
13.22000 344.000
13.24000 349.000
13.26000 342.000
13.28000 331.000
13.30000 358.000
13.32000 351.000
13.34000 360.000
13.36000 356.000
13.38000 342.000
13.40000 306.000
13.42000 371.000
13.44000 361.000
13.46000 356.000
13.48000 360.000
13.50000 354.000
13.52000 340.000
13.54000 341.000
13.56000 344.000
13.58000 343.000
13.60000 326.000
13.62000 341.000
13.64000 383.000
13.66000 368.000
13.68000 329.000
13.70000 349.000
13.72000 339.000
13.74000 357.000
13.76000 365.000
13.78000 363.000
13.80000 361.000
13.82000 363.000
13.84000 365.000
13.86000 355.000
13.88000 347.000
13.90000 332.000
13.92000 331.000
13.94000 354.000
13.96000 348.000
13.98000 340.000
14.00000 333.000
14.02000 335.000
14.04000 361.000
14.06000 358.000
14.08000 375.000
14.10000 333.000
14.12000 352.000
14.14000 354.000
14.16000 325.000
14.18000 347.000
14.20000 360.000
14.22000 335.000
14.24000 317.000
14.26000 345.000
14.28000 364.000
14.30000 347.000
14.32000 370.000
14.34000 352.000
14.36000 362.000
14.38000 333.000
14.40000 352.000
14.42000 355.000
14.44000 344.000
14.46000 360.000
14.48000 318.000
14.50000 359.000
14.52000 345.000
14.54000 357.000
14.56000 358.000
14.58000 345.000
14.60000 345.000
14.62000 359.000
14.64000 345.000
14.66000 334.000
14.68000 343.000
14.70000 354.000
14.72000 349.000
14.74000 331.000
14.76000 358.000
14.78000 358.000
14.80000 339.000
14.82000 352.000
14.84000 357.000
14.86000 352.000
14.88000 358.000
14.90000 326.000
14.92000 373.000
14.94000 350.000
14.96000 361.000
14.98000 335.000
15.00000 343.000
15.02000 344.000
15.04000 371.000
15.06000 356.000
15.08000 356.000
15.10000 365.000
15.12000 312.000
15.14000 359.000
15.16000 356.000
15.18000 363.000
15.20000 347.000
15.22000 374.000
15.24000 350.000
15.26000 368.000
15.28000 357.000
15.30000 382.000
15.32000 347.000
15.34000 375.000
15.36000 423.000
15.38000 371.000
15.40000 373.000
15.42000 374.000
15.44000 358.000
15.46000 365.000
15.48000 338.000
15.50000 389.000
15.52000 368.000
15.54000 370.000
15.56000 359.000
15.58000 351.000
15.60000 368.000
15.62000 340.000
15.64000 360.000
15.66000 345.000
15.68000 347.000
15.70000 366.000
15.72000 358.000
15.74000 353.000
15.76000 318.000
15.78000 365.000
15.80000 361.000
15.82000 337.000
15.84000 347.000
15.86000 351.000
15.88000 371.000
15.90000 379.000
15.92000 369.000
15.94000 361.000
15.96000 376.000
15.98000 367.000
16.00000 356.000
16.02000 377.000
16.04000 358.000
16.06000 364.000
16.08000 375.000
16.10000 349.000
16.12000 352.000
16.14000 349.000
16.16000 343.000
16.18000 355.000
16.20000 371.000
16.22000 344.000
16.24000 349.000
16.26000 353.000
16.28000 354.000
16.30000 321.000
16.32000 333.000
16.34000 364.000
16.36000 362.000
16.38000 364.000
16.40000 362.000
16.42000 382.000
16.44000 385.000
16.46000 376.000
16.48000 374.000
16.50000 366.000
16.52000 377.000
16.54000 351.000
16.56000 377.000
16.58000 393.000
16.60000 374.000
16.62000 360.000
16.64000 342.000
16.66000 386.000
16.68000 380.000
16.70000 359.000
16.72000 354.000
16.74000 381.000
16.76000 364.000
16.78000 388.000
16.80000 363.000
16.82000 384.000
16.84000 391.000
16.86000 385.000
16.88000 364.000
16.90000 366.000
16.92000 376.000
16.94000 356.000
16.96000 355.000
16.98000 373.000
17.00000 389.000
17.02000 396.000
17.04000 352.000
17.06000 385.000
17.08000 391.000
17.10000 368.000
17.12000 373.000
17.14000 385.000
17.16000 346.000
17.18000 383.000
17.20000 379.000
17.22000 374.000
17.24000 371.000
17.26000 389.000
17.28000 375.000
17.30000 407.000
17.32000 382.000
17.34000 374.000
17.36000 349.000
17.38000 363.000
17.40000 342.000
17.42000 356.000
17.44000 387.000
17.46000 386.000
17.48000 387.000
17.50000 392.000
17.52000 379.000
17.54000 368.000
17.56000 429.000
17.58000 376.000
17.60000 377.000
17.62000 414.000
17.64000 392.000
17.66000 405.000
17.68000 406.000
17.70000 419.000
17.72000 394.000
17.74000 406.000
17.76000 424.000
17.78000 424.000
17.80000 406.000
17.82000 439.000
17.84000 446.000
17.86000 467.000
17.88000 460.000
17.90000 487.000
17.92000 485.000
17.94000 486.000
17.96000 489.000
17.98000 522.000
18.00000 523.000
18.02000 551.000
18.04000 554.000
18.06000 532.000
18.08000 579.000
18.10000 622.000
18.12000 639.000
18.14000 634.000
18.16000 721.000
18.18000 794.000
18.20000 914.000
18.22000 1068.000
18.24000 1223.000
18.26000 1434.000
18.28000 1834.000
18.30000 2275.000
18.32000 2916.000
18.34000 3727.000
18.36000 4557.000
18.38000 5188.000
18.40000 5742.000
18.42000 6179.000
18.44000 5608.000
18.46000 4319.000
18.48000 2947.000
18.50000 1896.000
18.52000 1055.000
18.54000 681.000
18.56000 591.000
18.58000 512.000
18.60000 535.000
18.62000 462.000
18.64000 511.000
18.66000 525.000
18.68000 466.000
18.70000 489.000
18.72000 461.000
18.74000 504.000
18.76000 452.000
18.78000 440.000
18.80000 455.000
18.82000 450.000
18.84000 469.000
18.86000 441.000
18.88000 424.000
18.90000 425.000
18.92000 413.000
18.94000 442.000
18.96000 416.000
18.98000 404.000
19.00000 406.000
19.02000 472.000
19.04000 424.000
19.06000 423.000
19.08000 403.000
19.10000 448.000
19.12000 438.000
19.14000 420.000
19.16000 455.000
19.18000 428.000
19.20000 429.000
19.22000 364.000
19.24000 394.000
19.26000 368.000
19.28000 360.000
19.30000 452.000
19.32000 432.000
19.34000 433.000
19.36000 437.000
19.38000 413.000
19.40000 379.000
19.42000 423.000
19.44000 380.000
19.46000 443.000
19.48000 406.000
19.50000 413.000
19.52000 396.000
19.54000 431.000
19.56000 436.000
19.58000 430.000
19.60000 408.000
19.62000 392.000
19.64000 412.000
19.66000 428.000
19.68000 412.000
19.70000 420.000
19.72000 439.000
19.74000 408.000
19.76000 401.000
19.78000 391.000
19.80000 377.000
19.82000 427.000
19.84000 409.000
19.86000 390.000
19.88000 419.000
19.90000 435.000
19.92000 396.000
19.94000 417.000
19.96000 426.000
19.98000 443.000
20.00000 417.000
20.02000 432.000
20.04000 442.000
20.06000 415.000
20.08000 425.000
20.10000 409.000
20.12000 368.000
20.14000 427.000
20.16000 416.000
20.18000 403.000
20.20000 429.000
20.22000 425.000
20.24000 388.000
20.26000 393.000
20.28000 416.000
20.30000 422.000
20.32000 411.000
20.34000 415.000
20.36000 403.000
20.38000 424.000
20.40000 425.000
20.42000 437.000
20.44000 438.000
20.46000 411.000
20.48000 418.000
20.50000 431.000
20.52000 438.000
20.54000 400.000
20.56000 423.000
20.58000 397.000
20.60000 414.000
20.62000 426.000
20.64000 446.000
20.66000 434.000
20.68000 452.000
20.70000 472.000
20.72000 470.000
20.74000 446.000
20.76000 450.000
20.78000 474.000
20.80000 479.000
20.82000 449.000
20.84000 446.000
20.86000 480.000
20.88000 484.000
20.90000 494.000
20.92000 473.000
20.94000 467.000
20.96000 500.000
20.98000 537.000
21.00000 541.000
21.02000 542.000
21.04000 598.000
21.06000 629.000
21.08000 681.000
21.10000 763.000
21.12000 873.000
21.14000 1071.000
21.16000 1246.000
21.18000 1497.000
21.20000 1694.000
21.22000 1943.000
21.24000 2035.000
21.26000 2070.000
21.28000 1904.000
21.30000 1569.000
21.32000 1213.000
21.34000 961.000
21.36000 636.000
21.38000 550.000
21.40000 469.000
21.42000 495.000
21.44000 492.000
21.46000 417.000
21.48000 432.000
21.50000 472.000
21.52000 456.000
21.54000 422.000
21.56000 434.000
21.58000 438.000
21.60000 446.000
21.62000 417.000
21.64000 434.000
21.66000 423.000
21.68000 422.000
21.70000 456.000
21.72000 451.000
21.74000 419.000
21.76000 422.000
21.78000 441.000
21.80000 422.000
21.82000 421.000
21.84000 410.000
21.86000 416.000
21.88000 441.000
21.90000 430.000
21.92000 423.000
21.94000 397.000
21.96000 412.000
21.98000 429.000
22.00000 430.000
22.02000 409.000
22.04000 434.000
22.06000 425.000
22.08000 413.000
22.10000 419.000
22.12000 430.000
22.14000 425.000
22.16000 415.000
22.18000 421.000
22.20000 414.000
22.22000 420.000
22.24000 431.000
22.26000 406.000
22.28000 432.000
22.30000 423.000
22.32000 433.000
22.34000 434.000
22.36000 420.000
22.38000 435.000
22.40000 434.000
22.42000 429.000
22.44000 397.000
22.46000 454.000
22.48000 440.000
22.50000 422.000
22.52000 395.000
22.54000 426.000
22.56000 407.000
22.58000 419.000
22.60000 409.000
22.62000 409.000
22.64000 402.000
22.66000 386.000
22.68000 421.000
22.70000 434.000
22.72000 435.000
22.74000 392.000
22.76000 428.000
22.78000 419.000
22.80000 413.000
22.82000 436.000
22.84000 442.000
22.86000 432.000
22.88000 411.000
22.90000 425.000
22.92000 410.000
22.94000 415.000
22.96000 439.000
22.98000 446.000
23.00000 397.000
23.02000 414.000
23.04000 414.000
23.06000 431.000
23.08000 407.000
23.10000 406.000
23.12000 440.000
23.14000 392.000
23.16000 413.000
23.18000 408.000
23.20000 391.000
23.22000 424.000
23.24000 417.000
23.26000 423.000
23.28000 410.000
23.30000 402.000
23.32000 428.000
23.34000 418.000
23.36000 420.000
23.38000 418.000
23.40000 421.000
23.42000 429.000
23.44000 441.000
23.46000 449.000
23.48000 445.000
23.50000 393.000
23.52000 436.000
23.54000 412.000
23.56000 407.000
23.58000 412.000
23.60000 379.000
23.62000 432.000
23.64000 395.000
23.66000 426.000
23.68000 432.000
23.70000 465.000
23.72000 424.000
23.74000 420.000
23.76000 430.000
23.78000 419.000
23.80000 412.000
23.82000 395.000
23.84000 422.000
23.86000 397.000
23.88000 430.000
23.90000 446.000
23.92000 407.000
23.94000 417.000
23.96000 403.000
23.98000 428.000
24.00000 421.000
24.02000 384.000
24.04000 386.000
24.06000 443.000
24.08000 413.000
24.10000 449.000
24.12000 404.000
24.14000 370.000
24.16000 411.000
24.18000 411.000
24.20000 433.000
24.22000 386.000
24.24000 390.000
24.26000 371.000
24.28000 421.000
24.30000 414.000
24.32000 423.000
24.34000 414.000
24.36000 401.000
24.38000 416.000
24.40000 389.000
24.42000 423.000
24.44000 390.000
24.46000 400.000
24.48000 399.000
24.50000 413.000
24.52000 395.000
24.54000 421.000
24.56000 424.000
24.58000 415.000
24.60000 409.000
24.62000 360.000
24.64000 419.000
24.66000 436.000
24.68000 426.000
24.70000 415.000
24.72000 399.000
24.74000 404.000
24.76000 400.000
24.78000 423.000
24.80000 402.000
24.82000 412.000
24.84000 439.000
24.86000 416.000
24.88000 400.000
24.90000 419.000
24.92000 418.000
24.94000 391.000
24.96000 408.000
24.98000 406.000
25.00000 432.000
25.02000 417.000
25.04000 387.000
25.06000 422.000
25.08000 386.000
25.10000 412.000
25.12000 431.000
25.14000 389.000
25.16000 385.000
25.18000 432.000
25.20000 397.000
25.22000 377.000
25.24000 402.000
25.26000 401.000
25.28000 404.000
25.30000 405.000
25.32000 388.000
25.34000 437.000
25.36000 431.000
25.38000 388.000
25.40000 408.000
25.42000 415.000
25.44000 404.000
25.46000 377.000
25.48000 390.000
25.50000 407.000
25.52000 388.000
25.54000 387.000
25.56000 413.000
25.58000 388.000
25.60000 392.000
25.62000 411.000
25.64000 424.000
25.66000 427.000
25.68000 401.000
25.70000 357.000
25.72000 381.000
25.74000 412.000
25.76000 421.000
25.78000 370.000
25.80000 431.000
25.82000 448.000
25.84000 428.000
25.86000 406.000
25.88000 407.000
25.90000 362.000
25.92000 373.000
25.94000 413.000
25.96000 408.000
25.98000 386.000
26.00000 424.000
26.02000 404.000
26.04000 351.000
26.06000 386.000
26.08000 407.000
26.10000 398.000
26.12000 385.000
26.14000 376.000
26.16000 382.000
26.18000 386.000
26.20000 409.000
26.22000 405.000
26.24000 380.000
26.26000 395.000
26.28000 397.000
26.30000 415.000
26.32000 359.000
26.34000 352.000
26.36000 393.000
26.38000 401.000
26.40000 365.000
26.42000 386.000
26.44000 376.000
26.46000 388.000
26.48000 382.000
26.50000 381.000
26.52000 390.000
26.54000 403.000
26.56000 372.000
26.58000 387.000
26.60000 376.000
26.62000 403.000
26.64000 383.000
26.66000 383.000
26.68000 395.000
26.70000 369.000
26.72000 382.000
26.74000 379.000
26.76000 371.000
26.78000 386.000
26.80000 378.000
26.82000 370.000
26.84000 380.000
26.86000 372.000
26.88000 382.000
26.90000 385.000
26.92000 345.000
26.94000 335.000
26.96000 405.000
26.98000 414.000
27.00000 386.000
27.02000 370.000
27.04000 341.000
27.06000 372.000
27.08000 354.000
27.10000 391.000
27.12000 398.000
27.14000 384.000
27.16000 367.000
27.18000 398.000
27.20000 427.000
27.22000 400.000
27.24000 424.000
27.26000 421.000
27.28000 365.000
27.30000 368.000
27.32000 403.000
27.34000 372.000
27.36000 369.000
27.38000 404.000
27.40000 394.000
27.42000 382.000
27.44000 395.000
27.46000 411.000
27.48000 426.000
27.50000 406.000
27.52000 426.000
27.54000 418.000
27.56000 389.000
27.58000 444.000
27.60000 443.000
27.62000 447.000
27.64000 440.000
27.66000 457.000
27.68000 461.000
27.70000 488.000
27.72000 468.000
27.74000 458.000
27.76000 483.000
27.78000 524.000
27.80000 536.000
27.82000 579.000
27.84000 618.000
27.86000 624.000
27.88000 705.000
27.90000 752.000
27.92000 832.000
27.94000 1037.000
27.96000 1227.000
27.98000 1441.000
28.00000 1834.000
28.02000 2282.000
28.04000 2738.000
28.06000 3462.000
28.08000 4167.000
28.10000 4812.000
28.12000 5502.000
28.14000 5684.000
28.16000 5462.000
28.18000 4705.000
28.20000 3675.000
28.22000 2850.000
28.24000 2173.000
28.26000 1486.000
28.28000 883.000
28.30000 703.000
28.32000 562.000
28.34000 534.000
28.36000 538.000
28.38000 517.000
28.40000 457.000
28.42000 449.000
28.44000 475.000
28.46000 459.000
28.48000 436.000
28.50000 416.000
28.52000 446.000
28.54000 456.000
28.56000 420.000
28.58000 420.000
28.60000 456.000
28.62000 438.000
28.64000 481.000
28.66000 454.000
28.68000 467.000
28.70000 511.000
28.72000 514.000
28.74000 497.000
28.76000 558.000
28.78000 602.000
28.80000 599.000
28.82000 585.000
28.84000 569.000
28.86000 514.000
28.88000 554.000
28.90000 488.000
28.92000 520.000
28.94000 434.000
28.96000 423.000
28.98000 434.000
29.00000 393.000
29.02000 427.000
29.04000 420.000
29.06000 399.000
29.08000 385.000
29.10000 375.000
29.12000 410.000
29.14000 396.000
29.16000 369.000
29.18000 391.000
29.20000 418.000
29.22000 368.000
29.24000 384.000
29.26000 360.000
29.28000 409.000
29.30000 393.000
29.32000 388.000
29.34000 390.000
29.36000 367.000
29.38000 388.000
29.40000 367.000
29.42000 381.000
29.44000 381.000
29.46000 370.000
29.48000 377.000
29.50000 413.000
29.52000 392.000
29.54000 409.000
29.56000 440.000
29.58000 440.000
29.60000 433.000
29.62000 434.000
29.64000 433.000
29.66000 418.000
29.68000 388.000
29.70000 432.000
29.72000 420.000
29.74000 443.000
29.76000 446.000
29.78000 476.000
29.80000 530.000
29.82000 524.000
29.84000 578.000
29.86000 606.000
29.88000 680.000
29.90000 798.000
29.92000 904.000
29.94000 1090.000
29.96000 1314.000
29.98000 1612.000
30.00000 2028.000
30.02000 2485.000
30.04000 2993.000
30.06000 3555.000
30.08000 3889.000
30.10000 4322.000
30.12000 4286.000
30.14000 3630.000
30.16000 2957.000
30.18000 2439.000
30.20000 1931.000
30.22000 1422.000
30.24000 980.000
30.26000 679.000
30.28000 534.000
30.30000 473.000
30.32000 489.000
30.34000 455.000
30.36000 466.000
30.38000 472.000
30.40000 461.000
30.42000 460.000
30.44000 441.000
30.46000 397.000
30.48000 396.000
30.50000 377.000
30.52000 383.000
30.54000 403.000
30.56000 381.000
30.58000 368.000
30.60000 392.000
30.62000 383.000
30.64000 360.000
30.66000 366.000
30.68000 344.000
30.70000 379.000
30.72000 374.000
30.74000 391.000
30.76000 368.000
30.78000 353.000
30.80000 363.000
30.82000 369.000
30.84000 357.000
30.86000 387.000
30.88000 333.000
30.90000 326.000
30.92000 373.000
30.94000 360.000
30.96000 378.000
30.98000 340.000
31.00000 359.000
31.02000 370.000
31.04000 361.000
31.06000 349.000
31.08000 333.000
31.10000 335.000
31.12000 323.000
31.14000 346.000
31.16000 334.000
31.18000 348.000
31.20000 350.000
31.22000 340.000
31.24000 322.000
31.26000 324.000
31.28000 352.000
31.30000 348.000
31.32000 351.000
31.34000 329.000
31.36000 353.000
31.38000 345.000
31.40000 324.000
31.42000 348.000
31.44000 343.000
31.46000 323.000
31.48000 334.000
31.50000 335.000
31.52000 353.000
31.54000 365.000
31.56000 362.000
31.58000 336.000
31.60000 339.000
31.62000 344.000
31.64000 339.000
31.66000 357.000
31.68000 344.000
31.70000 377.000
31.72000 338.000
31.74000 359.000
31.76000 329.000
31.78000 342.000
31.80000 326.000
31.82000 341.000
31.84000 337.000
31.86000 328.000
31.88000 307.000
31.90000 317.000
31.92000 338.000
31.94000 353.000
31.96000 342.000
31.98000 342.000
32.00000 325.000
32.02000 349.000
32.04000 324.000
32.06000 346.000
32.08000 336.000
32.10000 358.000
32.12000 328.000
32.14000 322.000
32.16000 344.000
32.18000 355.000
32.20000 324.000
32.22000 323.000
32.24000 315.000
32.26000 354.000
32.28000 343.000
32.30000 346.000
32.32000 334.000
32.34000 330.000
32.36000 350.000
32.38000 340.000
32.40000 325.000
32.42000 401.000
32.44000 333.000
32.46000 349.000
32.48000 361.000
32.50000 348.000
32.52000 355.000
32.54000 369.000
32.56000 404.000
32.58000 417.000
32.60000 421.000
32.62000 395.000
32.64000 392.000
32.66000 409.000
32.68000 403.000
32.70000 453.000
32.72000 417.000
32.74000 448.000
32.76000 408.000
32.78000 412.000
32.80000 413.000
32.82000 438.000
32.84000 436.000
32.86000 438.000
32.88000 422.000
32.90000 417.000
32.92000 464.000
32.94000 427.000
32.96000 436.000
32.98000 435.000
33.00000 431.000
33.02000 431.000
33.04000 458.000
33.06000 469.000
33.08000 446.000
33.10000 465.000
33.12000 462.000
33.14000 509.000
33.16000 523.000
33.18000 553.000
33.20000 576.000
33.22000 607.000
33.24000 632.000
33.26000 643.000
33.28000 681.000
33.30000 695.000
33.32000 735.000
33.34000 803.000
33.36000 829.000
33.38000 817.000
33.40000 923.000
33.42000 997.000
33.44000 1122.000
33.46000 1388.000
33.48000 1626.000
33.50000 1939.000
33.52000 2410.000
33.54000 3161.000
33.56000 4173.000
33.58000 5506.000
33.60000 7234.000
33.62000 9174.000
33.64000 11842.000
33.66000 14916.000
33.68000 17701.000
33.70000 20011.000
33.72000 21041.000
33.74000 20750.000
33.76000 17865.000
33.78000 14204.000
33.80000 11514.000
33.82000 9657.000
33.84000 7179.000
33.86000 4571.000
33.88000 2749.000
33.90000 1629.000
33.92000 1191.000
33.94000 970.000
33.96000 862.000
33.98000 806.000
34.00000 753.000
34.02000 708.000
34.04000 694.000
34.06000 677.000
34.08000 644.000
34.10000 596.000
34.12000 616.000
34.14000 559.000
34.16000 531.000
34.18000 480.000
34.20000 471.000
34.22000 465.000
34.24000 474.000
34.26000 457.000
34.28000 432.000
34.30000 390.000
34.32000 413.000
34.34000 381.000
34.36000 400.000
34.38000 450.000
34.40000 391.000
34.42000 413.000
34.44000 386.000
34.46000 397.000
34.48000 383.000
34.50000 394.000
34.52000 398.000
34.54000 417.000
34.56000 384.000
34.58000 371.000
34.60000 382.000
34.62000 375.000
34.64000 379.000
34.66000 375.000
34.68000 378.000
34.70000 396.000
34.72000 378.000
34.74000 395.000
34.76000 379.000
34.78000 359.000
34.80000 364.000
34.82000 391.000
34.84000 367.000
34.86000 363.000
34.88000 385.000
34.90000 352.000
34.92000 336.000
34.94000 374.000
34.96000 384.000
34.98000 380.000
35.00000 324.000
35.02000 344.000
35.04000 355.000
35.06000 381.000
35.08000 378.000
35.10000 341.000
35.12000 368.000
35.14000 358.000
35.16000 372.000
35.18000 351.000
35.20000 376.000
35.22000 414.000
35.24000 403.000
35.26000 431.000
35.28000 425.000
35.30000 460.000
35.32000 499.000
35.34000 537.000
35.36000 582.000
35.38000 616.000
35.40000 598.000
35.42000 614.000
35.44000 570.000
35.46000 512.000
35.48000 501.000
35.50000 476.000
35.52000 458.000
35.54000 413.000
35.56000 393.000
35.58000 372.000
35.60000 376.000
35.62000 368.000
35.64000 327.000
35.66000 363.000
35.68000 370.000
35.70000 383.000
35.72000 346.000
35.74000 341.000
35.76000 343.000
35.78000 371.000
35.80000 364.000
35.82000 372.000
35.84000 357.000
35.86000 342.000
35.88000 348.000
35.90000 344.000
35.92000 356.000
35.94000 368.000
35.96000 383.000
35.98000 380.000
36.00000 342.000
36.02000 355.000
36.04000 337.000
36.06000 330.000
36.08000 365.000
36.10000 353.000
36.12000 340.000
36.14000 329.000
36.16000 326.000
36.18000 362.000
36.20000 337.000
36.22000 320.000
36.24000 354.000
36.26000 368.000
36.28000 317.000
36.30000 354.000
36.32000 348.000
36.34000 326.000
36.36000 377.000
36.38000 359.000
36.40000 342.000
36.42000 354.000
36.44000 389.000
36.46000 383.000
36.48000 362.000
36.50000 337.000
36.52000 382.000
36.54000 372.000
36.56000 373.000
36.58000 377.000
36.60000 397.000
36.62000 406.000
36.64000 413.000
36.66000 430.000
36.68000 427.000
36.70000 447.000
36.72000 430.000
36.74000 459.000
36.76000 510.000
36.78000 541.000
36.80000 628.000
36.82000 725.000
36.84000 860.000
36.86000 1034.000
36.88000 1330.000
36.90000 1647.000
36.92000 2142.000
36.94000 2704.000
36.96000 3320.000
36.98000 3952.000
37.00000 4313.000
37.02000 4641.000
37.04000 4627.000
37.06000 3885.000
37.08000 3215.000
37.10000 2731.000
37.12000 2350.000
37.14000 2029.000
37.16000 1450.000
37.18000 971.000
37.20000 719.000
37.22000 552.000
37.24000 514.000
37.26000 467.000
37.28000 448.000
37.30000 434.000
37.32000 427.000
37.34000 453.000
37.36000 433.000
37.38000 397.000
37.40000 378.000
37.42000 368.000
37.44000 374.000
37.46000 357.000
37.48000 386.000
37.50000 398.000
37.52000 368.000
37.54000 354.000
37.56000 340.000
37.58000 347.000
37.60000 345.000
37.62000 321.000
37.64000 355.000
37.66000 356.000
37.68000 330.000
37.70000 312.000
37.72000 338.000
37.74000 329.000
37.76000 324.000
37.78000 342.000
37.80000 339.000
37.82000 367.000
37.84000 336.000
37.86000 344.000
37.88000 348.000
37.90000 336.000
37.92000 331.000
37.94000 328.000
37.96000 331.000
37.98000 353.000
38.00000 355.000
38.02000 336.000
38.04000 347.000
38.06000 359.000
38.08000 345.000
38.10000 352.000
38.12000 366.000
38.14000 359.000
38.16000 303.000
38.18000 299.000
38.20000 310.000
38.22000 308.000
38.24000 350.000
38.26000 364.000
38.28000 385.000
38.30000 369.000
38.32000 374.000
38.34000 366.000
38.36000 387.000
38.38000 397.000
38.40000 404.000
38.42000 446.000
38.44000 476.000
38.46000 626.000
38.48000 684.000
38.50000 780.000
38.52000 849.000
38.54000 942.000
38.56000 1030.000
38.58000 1043.000
38.60000 982.000
38.62000 878.000
38.64000 779.000
38.66000 689.000
38.68000 672.000
38.70000 633.000
38.72000 513.000
38.74000 432.000
38.76000 376.000
38.78000 351.000
38.80000 346.000
38.82000 318.000
38.84000 348.000
38.86000 329.000
38.88000 340.000
38.90000 317.000
38.92000 316.000
38.94000 326.000
38.96000 330.000
38.98000 351.000
39.00000 336.000
39.02000 309.000
39.04000 306.000
39.06000 337.000
39.08000 306.000
39.10000 313.000
39.12000 328.000
39.14000 323.000
39.16000 311.000
39.18000 316.000
39.20000 337.000
39.22000 351.000
39.24000 323.000
39.26000 327.000
39.28000 343.000
39.30000 336.000
39.32000 335.000
39.34000 334.000
39.36000 327.000
39.38000 352.000
39.40000 332.000
39.42000 335.000
39.44000 321.000
39.46000 325.000
39.48000 298.000
39.50000 308.000
39.52000 324.000
39.54000 334.000
39.56000 310.000
39.58000 347.000
39.60000 351.000
39.62000 310.000
39.64000 315.000
39.66000 303.000
39.68000 284.000
39.70000 306.000
39.72000 308.000
39.74000 299.000
39.76000 302.000
39.78000 309.000
39.80000 329.000
39.82000 334.000
39.84000 312.000
39.86000 329.000
39.88000 319.000
39.90000 318.000
39.92000 307.000
39.94000 313.000
39.96000 305.000
39.98000 274.000
40.00000 323.000
40.02000 294.000
40.04000 305.000
40.06000 312.000
40.08000 354.000
40.10000 317.000
40.12000 345.000
40.14000 353.000
40.16000 319.000
40.18000 320.000
40.20000 308.000
40.22000 295.000
40.24000 349.000
40.26000 339.000
40.28000 307.000
40.30000 310.000
40.32000 329.000
40.34000 339.000
40.36000 300.000
40.38000 356.000
40.40000 356.000
40.42000 344.000
40.44000 328.000
40.46000 345.000
40.48000 321.000
40.50000 349.000
40.52000 332.000
40.54000 308.000
40.56000 330.000
40.58000 337.000
40.60000 323.000
40.62000 340.000
40.64000 353.000
40.66000 314.000
40.68000 328.000
40.70000 328.000
40.72000 333.000
40.74000 321.000
40.76000 357.000
40.78000 327.000
40.80000 330.000
40.82000 338.000
40.84000 328.000
40.86000 311.000
40.88000 337.000
40.90000 343.000
40.92000 360.000
40.94000 349.000
40.96000 316.000
40.98000 329.000
41.00000 338.000
41.02000 394.000
41.04000 364.000
41.06000 348.000
41.08000 360.000
41.10000 376.000
41.12000 405.000
41.14000 384.000
41.16000 394.000
41.18000 418.000
41.20000 433.000
41.22000 435.000
41.24000 445.000
41.26000 452.000
41.28000 512.000
41.30000 594.000
41.32000 672.000
41.34000 751.000
41.36000 920.000
41.38000 1132.000
41.40000 1420.000
41.42000 1940.000
41.44000 2465.000
41.46000 3223.000
41.48000 4090.000
41.50000 4926.000
41.52000 5524.000
41.54000 5877.000
41.56000 5691.000
41.58000 4942.000
41.60000 4143.000
41.62000 3482.000
41.64000 3179.000
41.66000 2858.000
41.68000 2355.000
41.70000 1618.000
41.72000 1081.000
41.74000 758.000
41.76000 589.000
41.78000 492.000
41.80000 458.000
41.82000 442.000
41.84000 460.000
41.86000 425.000
41.88000 435.000
41.90000 442.000
41.92000 399.000
41.94000 380.000
41.96000 371.000
41.98000 371.000
42.00000 377.000
42.02000 366.000
42.04000 381.000
42.06000 371.000
42.08000 325.000
42.10000 353.000
42.12000 352.000
42.14000 338.000
42.16000 361.000
42.18000 364.000
42.20000 325.000
42.22000 336.000
42.24000 350.000
42.26000 344.000
42.28000 317.000
42.30000 319.000
42.32000 330.000
42.34000 342.000
42.36000 334.000
42.38000 341.000
42.40000 332.000
42.42000 328.000
42.44000 329.000
42.46000 325.000
42.48000 320.000
42.50000 346.000
42.52000 355.000
42.54000 320.000
42.56000 362.000
42.58000 328.000
42.60000 318.000
42.62000 360.000
42.64000 371.000
42.66000 343.000
42.68000 342.000
42.70000 370.000
42.72000 389.000
42.74000 419.000
42.76000 421.000
42.78000 443.000
42.80000 523.000
42.82000 562.000
42.84000 693.000
42.86000 853.000
42.88000 1004.000
42.90000 1194.000
42.92000 1477.000
42.94000 1530.000
42.96000 1522.000
42.98000 1504.000
43.00000 1325.000
43.02000 1165.000
43.04000 1050.000
43.06000 943.000
43.08000 896.000
43.10000 800.000
43.12000 636.000
43.14000 489.000
43.16000 402.000
43.18000 399.000
43.20000 362.000
43.22000 344.000
43.24000 327.000
43.26000 348.000
43.28000 361.000
43.30000 344.000
43.32000 341.000
43.34000 317.000
43.36000 346.000
43.38000 353.000
43.40000 342.000
43.42000 347.000
43.44000 328.000
43.46000 341.000
43.48000 343.000
43.50000 306.000
43.52000 340.000
43.54000 378.000
43.56000 362.000
43.58000 362.000
43.60000 340.000
43.62000 361.000
43.64000 329.000
43.66000 335.000
43.68000 331.000
43.70000 350.000
43.72000 354.000
43.74000 319.000
43.76000 292.000
43.78000 316.000
43.80000 321.000
43.82000 312.000
43.84000 341.000
43.86000 327.000
43.88000 292.000
43.90000 273.000
43.92000 308.000
43.94000 316.000
43.96000 287.000
43.98000 298.000
44.00000 350.000
44.02000 306.000
44.04000 324.000
44.06000 277.000
44.08000 326.000
44.10000 311.000
44.12000 325.000
44.14000 341.000
44.16000 311.000
44.18000 293.000
44.20000 340.000
44.22000 323.000
44.24000 307.000
44.26000 298.000
44.28000 313.000
44.30000 311.000
44.32000 298.000
44.34000 321.000
44.36000 312.000
44.38000 313.000
44.40000 306.000
44.42000 318.000
44.44000 311.000
44.46000 319.000
44.48000 329.000
44.50000 294.000
44.52000 319.000
44.54000 318.000
44.56000 293.000
44.58000 305.000
44.60000 320.000
44.62000 298.000
44.64000 302.000
44.66000 321.000
44.68000 327.000
44.70000 292.000
44.72000 313.000
44.74000 332.000
44.76000 271.000
44.78000 334.000
44.80000 326.000
44.82000 338.000
44.84000 266.000
44.86000 306.000
44.88000 307.000
44.90000 288.000
44.92000 299.000
44.94000 327.000
44.96000 299.000
44.98000 301.000
45.00000 313.000
45.02000 300.000
45.04000 309.000
45.06000 310.000
45.08000 309.000
45.10000 303.000
45.12000 322.000
45.14000 307.000
45.16000 315.000
45.18000 307.000
45.20000 318.000
45.22000 299.000
45.24000 323.000
45.26000 311.000
45.28000 317.000
45.30000 309.000
45.32000 331.000
45.34000 317.000
45.36000 321.000
45.38000 320.000
45.40000 323.000
45.42000 324.000
45.44000 323.000
45.46000 344.000
45.48000 318.000
45.50000 335.000
45.52000 331.000
45.54000 324.000
45.56000 333.000
45.58000 318.000
45.60000 317.000
45.62000 322.000
45.64000 339.000
45.66000 327.000
45.68000 325.000
45.70000 326.000
45.72000 336.000
45.74000 324.000
45.76000 307.000
45.78000 331.000
45.80000 343.000
45.82000 325.000
45.84000 316.000
45.86000 319.000
45.88000 334.000
45.90000 339.000
45.92000 334.000
45.94000 313.000
45.96000 330.000
45.98000 327.000
46.00000 312.000
46.02000 346.000
46.04000 320.000
46.06000 354.000
46.08000 312.000
46.10000 298.000
46.12000 323.000
46.14000 311.000
46.16000 330.000
46.18000 302.000
46.20000 308.000
46.22000 314.000
46.24000 338.000
46.26000 355.000
46.28000 354.000
46.30000 334.000
46.32000 331.000
46.34000 334.000
46.36000 327.000
46.38000 375.000
46.40000 355.000
46.42000 360.000
46.44000 358.000
46.46000 352.000
46.48000 377.000
46.50000 363.000
46.52000 392.000
46.54000 348.000
46.56000 364.000
46.58000 362.000
46.60000 392.000
46.62000 402.000
46.64000 420.000
46.66000 435.000
46.68000 431.000
46.70000 495.000
46.72000 489.000
46.74000 539.000
46.76000 593.000
46.78000 679.000
46.80000 726.000
46.82000 882.000
46.84000 1097.000
46.86000 1431.000
46.88000 1941.000
46.90000 2535.000
46.92000 3281.000
46.94000 4413.000
46.96000 5314.000
46.98000 6139.000
47.00000 6510.000
47.02000 6376.000
47.04000 5522.000
47.06000 4650.000
47.08000 3882.000
47.10000 3676.000
47.12000 3472.000
47.14000 3115.000
47.16000 2509.000
47.18000 1766.000
47.20000 1228.000
47.22000 848.000
47.24000 672.000
47.26000 583.000
47.28000 533.000
47.30000 499.000
47.32000 476.000
47.34000 454.000
47.36000 467.000
47.38000 415.000
47.40000 429.000
47.42000 437.000
47.44000 384.000
47.46000 394.000
47.48000 389.000
47.50000 411.000
47.52000 379.000
47.54000 408.000
47.56000 381.000
47.58000 399.000
47.60000 416.000
47.62000 419.000
47.64000 374.000
47.66000 440.000
47.68000 448.000
47.70000 439.000
47.72000 435.000
47.74000 399.000
47.76000 389.000
47.78000 425.000
47.80000 422.000
47.82000 416.000
47.84000 397.000
47.86000 356.000
47.88000 387.000
47.90000 396.000
47.92000 342.000
47.94000 357.000
47.96000 382.000
47.98000 348.000
48.00000 381.000
48.02000 361.000
48.04000 339.000
48.06000 350.000
48.08000 357.000
48.10000 365.000
48.12000 336.000
48.14000 348.000
48.16000 441.000
48.18000 396.000
48.20000 433.000
48.22000 474.000
48.24000 538.000
48.26000 555.000
48.28000 590.000
48.30000 605.000
48.32000 555.000
48.34000 493.000
48.36000 516.000
48.38000 498.000
48.40000 505.000
48.42000 473.000
48.44000 415.000
48.46000 440.000
48.48000 382.000
48.50000 362.000
48.52000 346.000
48.54000 326.000
48.56000 301.000
48.58000 307.000
48.60000 322.000
48.62000 318.000
48.64000 334.000
48.66000 303.000
48.68000 334.000
48.70000 355.000
48.72000 326.000
48.74000 319.000
48.76000 320.000
48.78000 303.000
48.80000 304.000
48.82000 329.000
48.84000 328.000
48.86000 317.000
48.88000 321.000
48.90000 305.000
48.92000 279.000
48.94000 316.000
48.96000 319.000
48.98000 329.000
49.00000 263.000
49.02000 310.000
49.04000 299.000
49.06000 303.000
49.08000 335.000
49.10000 292.000
49.12000 312.000
49.14000 328.000
49.16000 290.000
49.18000 314.000
49.20000 307.000
49.22000 327.000
49.24000 335.000
49.26000 339.000
49.28000 318.000
49.30000 344.000
49.32000 306.000
49.34000 319.000
49.36000 309.000
49.38000 302.000
49.40000 296.000
49.42000 322.000
49.44000 319.000
49.46000 311.000
49.48000 327.000
49.50000 324.000
49.52000 330.000
49.54000 296.000
49.56000 341.000
49.58000 296.000
49.60000 337.000
49.62000 349.000
49.64000 310.000
49.66000 286.000
49.68000 315.000
49.70000 286.000
49.72000 327.000
49.74000 321.000
49.76000 321.000
49.78000 331.000
49.80000 318.000
49.82000 316.000
49.84000 339.000
49.86000 329.000
49.88000 305.000
49.90000 334.000
49.92000 328.000
49.94000 334.000
49.96000 306.000
49.98000 308.000
50.00000 336.000
50.02000 340.000
50.04000 310.000
50.06000 303.000
50.08000 306.000
50.10000 303.000
50.12000 313.000
50.14000 331.000
50.16000 317.000
50.18000 328.000
50.20000 319.000
50.22000 329.000
50.24000 338.000
50.26000 309.000
50.28000 341.000
50.30000 312.000
50.32000 332.000
50.34000 317.000
50.36000 303.000
50.38000 315.000
50.40000 311.000
50.42000 314.000
50.44000 348.000
50.46000 311.000
50.48000 332.000
50.50000 308.000
50.52000 294.000
50.54000 295.000
50.56000 288.000
50.58000 300.000
50.60000 306.000
50.62000 317.000
50.64000 301.000
50.66000 322.000
50.68000 294.000
50.70000 317.000
50.72000 331.000
50.74000 294.000
50.76000 317.000
50.78000 300.000
50.80000 278.000
50.82000 327.000
50.84000 301.000
50.86000 303.000
50.88000 300.000
50.90000 320.000
50.92000 302.000
50.94000 319.000
50.96000 271.000
50.98000 304.000
51.00000 315.000
51.02000 318.000
51.04000 314.000
51.06000 295.000
51.08000 307.000
51.10000 299.000
51.12000 313.000
51.14000 305.000
51.16000 313.000
51.18000 299.000
51.20000 308.000
51.22000 310.000
51.24000 335.000
51.26000 303.000
51.28000 322.000
51.30000 291.000
51.32000 339.000
51.34000 313.000
51.36000 328.000
51.38000 303.000
51.40000 298.000
51.42000 354.000
51.44000 338.000
51.46000 334.000
51.48000 338.000
51.50000 325.000
51.52000 360.000
51.54000 342.000
51.56000 331.000
51.58000 329.000
51.60000 326.000
51.62000 355.000
51.64000 324.000
51.66000 384.000
51.68000 325.000
51.70000 317.000
51.72000 388.000
51.74000 369.000
51.76000 402.000
51.78000 374.000
51.80000 401.000
51.82000 411.000
51.84000 434.000
51.86000 430.000
51.88000 532.000
51.90000 587.000
51.92000 715.000
51.94000 907.000
51.96000 1031.000
51.98000 1170.000
52.00000 1276.000
52.02000 1254.000
52.04000 1200.000
52.06000 1045.000
52.08000 878.000
52.10000 828.000
52.12000 783.000
52.14000 852.000
52.16000 793.000
52.18000 672.000
52.20000 619.000
52.22000 466.000
52.24000 405.000
52.26000 403.000
52.28000 389.000
52.30000 357.000
52.32000 354.000
52.34000 354.000
52.36000 337.000
52.38000 349.000
52.40000 347.000
52.42000 361.000
52.44000 346.000
52.46000 361.000
52.48000 320.000
52.50000 336.000
52.52000 313.000
52.54000 338.000
52.56000 344.000
52.58000 341.000
52.60000 315.000
52.62000 334.000
52.64000 348.000
52.66000 343.000
52.68000 378.000
52.70000 349.000
52.72000 389.000
52.74000 423.000
52.76000 413.000
52.78000 363.000
52.80000 426.000
52.82000 388.000
52.84000 411.000
52.86000 442.000
52.88000 421.000
52.90000 458.000
52.92000 490.000
52.94000 472.000
52.96000 546.000
52.98000 533.000
53.00000 608.000
53.02000 664.000
53.04000 739.000
53.06000 923.000
53.08000 1169.000
53.10000 1562.000
53.12000 2162.000
53.14000 2935.000
53.16000 3603.000
53.18000 4285.000
53.20000 4665.000
53.22000 4588.000
53.24000 4183.000
53.26000 3361.000
53.28000 2818.000
53.30000 2643.000
53.32000 2696.000
53.34000 2684.000
53.36000 2416.000
53.38000 2018.000
53.40000 1638.000
53.42000 1157.000
53.44000 822.000
53.46000 661.000
53.48000 545.000
53.50000 488.000
53.52000 457.000
53.54000 458.000
53.56000 428.000
53.58000 417.000
53.60000 419.000
53.62000 417.000
53.64000 353.000
53.66000 369.000
53.68000 370.000
53.70000 388.000
53.72000 368.000
53.74000 372.000
53.76000 362.000
53.78000 366.000
53.80000 368.000
53.82000 378.000
53.84000 360.000
53.86000 355.000
53.88000 355.000
53.90000 364.000
53.92000 347.000
53.94000 326.000
53.96000 325.000
53.98000 330.000
54.00000 367.000
54.02000 357.000
54.04000 351.000
54.06000 341.000
54.08000 366.000
54.10000 337.000
54.12000 343.000
54.14000 356.000
54.16000 348.000
54.18000 329.000
54.20000 339.000
54.22000 351.000
54.24000 348.000
54.26000 339.000
54.28000 348.000
54.30000 347.000
54.32000 333.000
54.34000 353.000
54.36000 367.000
54.38000 362.000
54.40000 367.000
54.42000 380.000
54.44000 361.000
54.46000 356.000
54.48000 370.000
54.50000 348.000
54.52000 339.000
54.54000 355.000
54.56000 324.000
54.58000 359.000
54.60000 356.000
54.62000 350.000
54.64000 316.000
54.66000 352.000
54.68000 327.000
54.70000 339.000
54.72000 368.000
54.74000 359.000
54.76000 366.000
54.78000 376.000
54.80000 340.000
54.82000 371.000
54.84000 358.000
54.86000 370.000
54.88000 380.000
54.90000 377.000
54.92000 370.000
54.94000 379.000
54.96000 416.000
54.98000 369.000
55.00000 365.000
55.02000 399.000
55.04000 402.000
55.06000 379.000
55.08000 406.000
55.10000 446.000
55.12000 426.000
55.14000 420.000
55.16000 423.000
55.18000 488.000
55.20000 492.000
55.22000 546.000
55.24000 559.000
55.26000 592.000
55.28000 623.000
55.30000 717.000
55.32000 730.000
55.34000 734.000
55.36000 870.000
55.38000 1013.000
55.40000 1296.000
55.42000 1823.000
55.44000 2588.000
55.46000 3513.000
55.48000 4658.000
55.50000 5871.000
55.52000 6896.000
55.54000 7479.000
55.56000 7428.000
55.58000 6676.000
55.60000 5541.000
55.62000 4420.000
55.64000 3968.000
55.66000 4048.000
55.68000 4230.000
55.70000 4036.000
55.72000 3646.000
55.74000 2910.000
55.76000 2140.000
55.78000 1400.000
55.80000 1004.000
55.82000 810.000
55.84000 682.000
55.86000 599.000
55.88000 576.000
55.90000 548.000
55.92000 525.000
55.94000 493.000
55.96000 512.000
55.98000 463.000
56.00000 419.000
56.02000 429.000
56.04000 394.000
56.06000 433.000
56.08000 406.000
56.10000 412.000
56.12000 389.000
56.14000 374.000
56.16000 434.000
56.18000 399.000
56.20000 378.000
56.22000 379.000
56.24000 456.000
56.26000 397.000
56.28000 408.000
56.30000 403.000
56.32000 448.000
56.34000 435.000
56.36000 443.000
56.38000 459.000
56.40000 453.000
56.42000 491.000
56.44000 498.000
56.46000 513.000
56.48000 549.000
56.50000 621.000
56.52000 590.000
56.54000 695.000
56.56000 861.000
56.58000 1063.000
56.60000 1333.000
56.62000 1772.000
56.64000 2153.000
56.66000 2505.000
56.68000 2930.000
56.70000 2920.000
56.72000 2649.000
56.74000 2253.000
56.76000 1863.000
56.78000 1647.000
56.80000 1679.000
56.82000 1679.000
56.84000 1684.000
56.86000 1655.000
56.88000 1361.000
56.90000 1084.000
56.92000 821.000
56.94000 624.000
56.96000 546.000
56.98000 506.000
57.00000 435.000
57.02000 417.000
57.04000 410.000
57.06000 437.000
57.08000 406.000
57.10000 384.000
57.12000 390.000
57.14000 393.000
57.16000 381.000
57.18000 371.000
57.20000 371.000
57.22000 369.000
57.24000 406.000
57.26000 376.000
57.28000 383.000
57.30000 372.000
57.32000 414.000
57.34000 389.000
57.36000 402.000
57.38000 404.000
57.40000 412.000
57.42000 434.000
57.44000 415.000
57.46000 459.000
57.48000 480.000
57.50000 480.000
57.52000 527.000
57.54000 564.000
57.56000 549.000
57.58000 544.000
57.60000 662.000
57.62000 683.000
57.64000 755.000
57.66000 928.000
57.68000 1149.000
57.70000 1550.000
57.72000 2192.000
57.74000 2986.000
57.76000 3953.000
57.78000 4779.000
57.80000 5630.000
57.82000 5952.000
57.84000 5869.000
57.86000 5166.000
57.88000 4185.000
57.90000 3398.000
57.92000 3127.000
57.94000 3221.000
57.96000 3267.000
57.98000 3294.000
58.00000 3041.000
58.02000 2469.000
58.04000 1834.000
58.06000 1262.000
58.08000 993.000
58.10000 724.000
58.12000 604.000
58.14000 546.000
58.16000 533.000
58.18000 496.000
58.20000 455.000
58.22000 453.000
58.24000 430.000
58.26000 400.000
58.28000 386.000
58.30000 371.000
58.32000 380.000
58.34000 372.000
58.36000 354.000
58.38000 394.000
58.40000 318.000
58.42000 348.000
58.44000 360.000
58.46000 340.000
58.48000 329.000
58.50000 341.000
58.52000 354.000
58.54000 342.000
58.56000 339.000
58.58000 344.000
58.60000 335.000
58.62000 342.000
58.64000 346.000
58.66000 340.000
58.68000 307.000
58.70000 359.000
58.72000 349.000
58.74000 332.000
58.76000 325.000
58.78000 341.000
58.80000 387.000
58.82000 343.000
58.84000 316.000
58.86000 325.000
58.88000 365.000
58.90000 356.000
58.92000 340.000
58.94000 326.000
58.96000 330.000
58.98000 326.000
59.00000 282.000
59.02000 368.000
59.04000 374.000
59.06000 333.000
59.08000 345.000
59.10000 343.000
59.12000 346.000
59.14000 332.000
59.16000 345.000
59.18000 346.000
59.20000 320.000
59.22000 336.000
59.24000 346.000
59.26000 359.000
59.28000 346.000
59.30000 333.000
59.32000 374.000
59.34000 340.000
59.36000 332.000
59.38000 347.000
59.40000 325.000
59.42000 341.000
59.44000 336.000
59.46000 342.000
59.48000 318.000
59.50000 345.000
59.52000 329.000
59.54000 331.000
59.56000 337.000
59.58000 329.000
59.60000 335.000
59.62000 331.000
59.64000 317.000
59.66000 323.000
59.68000 330.000
59.70000 340.000
59.72000 349.000
59.74000 313.000
59.76000 318.000
59.78000 327.000
59.80000 323.000
59.82000 325.000
59.84000 355.000
59.86000 331.000
59.88000 330.000
59.90000 277.000
59.92000 298.000
59.94000 308.000
59.96000 309.000
59.98000 328.000
60.00000 329.000
60.02000 315.000
60.04000 327.000
60.06000 336.000
60.08000 330.000
60.10000 339.000
60.12000 365.000
60.14000 339.000
60.16000 334.000
60.18000 323.000
60.20000 342.000
60.22000 351.000
60.24000 340.000
60.26000 308.000
60.28000 356.000
60.30000 327.000
60.32000 295.000
60.34000 318.000
60.36000 332.000
60.38000 344.000
60.40000 322.000
60.42000 340.000
60.44000 326.000
60.46000 350.000
60.48000 325.000
60.50000 341.000
60.52000 351.000
60.54000 341.000
60.56000 327.000
60.58000 307.000
60.60000 295.000
60.62000 336.000
60.64000 338.000
60.66000 328.000
60.68000 372.000
60.70000 364.000
60.72000 365.000
60.74000 331.000
60.76000 334.000
60.78000 343.000
60.80000 360.000
60.82000 364.000
60.84000 359.000
60.86000 406.000
60.88000 401.000
60.90000 358.000
60.92000 380.000
60.94000 403.000
60.96000 460.000
60.98000 461.000
61.00000 545.000
61.02000 663.000
61.04000 871.000
61.06000 1082.000
61.08000 1305.000
61.10000 1556.000
61.12000 1664.000
61.14000 1777.000
61.16000 1672.000
61.18000 1383.000
61.20000 1171.000
61.22000 1048.000
61.24000 963.000
61.26000 1024.000
61.28000 1059.000
61.30000 1076.000
61.32000 1067.000
61.34000 918.000
61.36000 782.000
61.38000 626.000
61.40000 516.000
61.42000 444.000
61.44000 428.000
61.46000 388.000
61.48000 372.000
61.50000 365.000
61.52000 393.000
61.54000 330.000
61.56000 362.000
61.58000 355.000
61.60000 384.000
61.62000 368.000
61.64000 348.000
61.66000 338.000
61.68000 348.000
61.70000 359.000
61.72000 368.000
61.74000 379.000
61.76000 332.000
61.78000 367.000
61.80000 381.000
61.82000 355.000
61.84000 389.000
61.86000 403.000
61.88000 429.000
61.90000 434.000
61.92000 413.000
61.94000 402.000
61.96000 418.000
61.98000 463.000
62.00000 477.000
62.02000 468.000
62.04000 554.000
62.06000 653.000
62.08000 743.000
62.10000 989.000
62.12000 1239.000
62.14000 1624.000
62.16000 2055.000
62.18000 2475.000
62.20000 2748.000
62.22000 2835.000
62.24000 2654.000
62.26000 2228.000
62.28000 1813.000
62.30000 1500.000
62.32000 1456.000
62.34000 1500.000
62.36000 1570.000
62.38000 1612.000
62.40000 1552.000
62.42000 1407.000
62.44000 1143.000
62.46000 874.000
62.48000 721.000
62.50000 526.000
62.52000 443.000
62.54000 442.000
62.56000 406.000
62.58000 377.000
62.60000 369.000
62.62000 365.000
62.64000 378.000
62.66000 356.000
62.68000 362.000
62.70000 367.000
62.72000 371.000
62.74000 359.000
62.76000 323.000
62.78000 342.000
62.80000 327.000
62.82000 343.000
62.84000 336.000
62.86000 328.000
62.88000 330.000
62.90000 303.000
62.92000 330.000
62.94000 318.000
62.96000 313.000
62.98000 314.000
63.00000 338.000
63.02000 348.000
63.04000 316.000
63.06000 355.000
63.08000 352.000
63.10000 341.000
63.12000 329.000
63.14000 339.000
63.16000 324.000
63.18000 360.000
63.20000 355.000
63.22000 354.000
63.24000 362.000
63.26000 405.000
63.28000 388.000
63.30000 370.000
63.32000 353.000
63.34000 378.000
63.36000 342.000
63.38000 318.000
63.40000 354.000
63.42000 365.000
63.44000 336.000
63.46000 331.000
63.48000 341.000
63.50000 343.000
63.52000 324.000
63.54000 328.000
63.56000 319.000
63.58000 327.000
63.60000 317.000
63.62000 305.000
63.64000 312.000
63.66000 324.000
63.68000 349.000
63.70000 297.000
63.72000 314.000
63.74000 312.000
63.76000 300.000
63.78000 309.000
63.80000 318.000
63.82000 292.000
63.84000 309.000
63.86000 291.000
63.88000 342.000
63.90000 292.000
63.92000 288.000
63.94000 297.000
63.96000 311.000
63.98000 326.000
64.00000 303.000
64.02000 319.000
64.04000 315.000
64.06000 313.000
64.08000 317.000
64.10000 323.000
64.12000 314.000
64.14000 326.000
64.16000 294.000
64.18000 327.000
64.20000 336.000
64.22000 312.000
64.24000 305.000
64.26000 334.000
64.28000 368.000
64.30000 358.000
64.32000 350.000
64.34000 349.000
64.36000 348.000
64.38000 338.000
64.40000 364.000
64.42000 349.000
64.44000 360.000
64.46000 353.000
64.48000 371.000
64.50000 325.000
64.52000 331.000
64.54000 341.000
64.56000 324.000
64.58000 319.000
64.60000 323.000
64.62000 329.000
64.64000 303.000
64.66000 315.000
64.68000 339.000
64.70000 311.000
64.72000 278.000
64.74000 340.000
64.76000 300.000
64.78000 313.000
64.80000 332.000
64.82000 328.000
64.84000 288.000
64.86000 327.000
64.88000 345.000
64.90000 310.000
64.92000 320.000
64.94000 310.000
64.96000 309.000
64.98000 320.000
65.00000 333.000
65.02000 305.000
65.04000 322.000
65.06000 314.000
65.08000 344.000
65.10000 326.000
65.12000 332.000
65.14000 327.000
65.16000 324.000
65.18000 321.000
65.20000 333.000
65.22000 346.000
65.24000 372.000
65.26000 344.000
65.28000 411.000
65.30000 469.000
65.32000 534.000
65.34000 545.000
65.36000 608.000
65.38000 670.000
65.40000 677.000
65.42000 673.000
65.44000 550.000
65.46000 514.000
65.48000 483.000
65.50000 463.000
65.52000 516.000
65.54000 519.000
65.56000 507.000
65.58000 460.000
65.60000 498.000
65.62000 461.000
65.64000 368.000
65.66000 358.000
65.68000 341.000
65.70000 342.000
65.72000 337.000
65.74000 332.000
65.76000 348.000
65.78000 309.000
65.80000 306.000
65.82000 313.000
65.84000 327.000
65.86000 311.000
65.88000 293.000
65.90000 291.000
65.92000 309.000
65.94000 310.000
65.96000 330.000
65.98000 310.000
66.00000 335.000
66.02000 333.000
66.04000 345.000
66.06000 334.000
66.08000 294.000
66.10000 314.000
66.12000 304.000
66.14000 314.000
66.16000 309.000
66.18000 309.000
66.20000 319.000
66.22000 347.000
66.24000 332.000
66.26000 360.000
66.28000 368.000
66.30000 377.000
66.32000 360.000
66.34000 447.000
66.36000 485.000
66.38000 593.000
66.40000 609.000
66.42000 639.000
66.44000 729.000
66.46000 649.000
66.48000 534.000
66.50000 525.000
66.52000 514.000
66.54000 485.000
66.56000 465.000
66.58000 463.000
66.60000 494.000
66.62000 516.000
66.64000 496.000
66.66000 465.000
66.68000 396.000
66.70000 365.000
66.72000 377.000
66.74000 355.000
66.76000 330.000
66.78000 338.000
66.80000 359.000
66.82000 365.000
66.84000 323.000
66.86000 306.000
66.88000 322.000
66.90000 334.000
66.92000 321.000
66.94000 343.000
66.96000 302.000
66.98000 297.000
67.00000 309.000
67.02000 291.000
67.04000 326.000
67.06000 299.000
67.08000 318.000
67.10000 338.000
67.12000 303.000
67.14000 292.000
67.16000 305.000
67.18000 314.000
67.20000 305.000
67.22000 299.000
67.24000 311.000
67.26000 292.000
67.28000 317.000
67.30000 321.000
67.32000 300.000
67.34000 323.000
67.36000 308.000
67.38000 324.000
67.40000 329.000
67.42000 336.000
67.44000 340.000
67.46000 352.000
67.48000 363.000
67.50000 368.000
67.52000 304.000
67.54000 300.000
67.56000 312.000
67.58000 311.000
67.60000 331.000
67.62000 353.000
67.64000 340.000
67.66000 318.000
67.68000 315.000
67.70000 319.000
67.72000 321.000
67.74000 308.000
67.76000 298.000
67.78000 307.000
67.80000 331.000
67.82000 303.000
67.84000 291.000
67.86000 267.000
67.88000 297.000
67.90000 333.000
67.92000 308.000
67.94000 289.000
67.96000 288.000
67.98000 314.000
68.00000 275.000
68.02000 302.000
68.04000 332.000
68.06000 329.000
68.08000 289.000
68.10000 326.000
68.12000 292.000
68.14000 315.000
68.16000 308.000
68.18000 322.000
68.20000 337.000
68.22000 332.000
68.24000 334.000
68.26000 330.000
68.28000 315.000
68.30000 317.000
68.32000 318.000
68.34000 340.000
68.36000 305.000
68.38000 328.000
68.40000 364.000
68.42000 355.000
68.44000 316.000
68.46000 315.000
68.48000 357.000
68.50000 312.000
68.52000 312.000
68.54000 330.000
68.56000 324.000
68.58000 304.000
68.60000 294.000
68.62000 292.000
68.64000 297.000
68.66000 304.000
68.68000 299.000
68.70000 326.000
68.72000 310.000
68.74000 302.000
68.76000 326.000
68.78000 298.000
68.80000 322.000
68.82000 324.000
68.84000 303.000
68.86000 295.000
68.88000 278.000
68.90000 296.000
68.92000 298.000
68.94000 306.000
68.96000 319.000
68.98000 312.000
69.00000 300.000
69.02000 320.000
69.04000 323.000
69.06000 302.000
69.08000 306.000
69.10000 301.000
69.12000 317.000
69.14000 312.000
69.16000 312.000
69.18000 314.000
69.20000 303.000
69.22000 316.000
69.24000 299.000
69.26000 311.000
69.28000 321.000
69.30000 324.000
69.32000 352.000
69.34000 332.000
69.36000 354.000
69.38000 341.000
69.40000 415.000
69.42000 464.000
69.44000 468.000
69.46000 539.000
69.48000 610.000
69.50000 635.000
69.52000 641.000
69.54000 586.000
69.56000 539.000
69.58000 467.000
69.60000 450.000
69.62000 461.000
69.64000 467.000
69.66000 436.000
69.68000 479.000
69.70000 555.000
69.72000 539.000
69.74000 470.000
69.76000 439.000
69.78000 411.000
69.80000 378.000
69.82000 390.000
69.84000 359.000
69.86000 346.000
69.88000 352.000
69.90000 328.000
69.92000 312.000
69.94000 328.000
69.96000 386.000
69.98000 317.000
70.00000 330.000
70.02000 356.000
70.04000 341.000
70.06000 327.000
70.08000 361.000
70.10000 314.000
70.12000 346.000
70.14000 356.000
70.16000 379.000
70.18000 398.000
70.20000 376.000
70.22000 338.000
70.24000 364.000
70.26000 373.000
70.28000 370.000
70.30000 385.000
70.32000 423.000
70.34000 442.000
70.36000 450.000
70.38000 554.000
70.40000 645.000
70.42000 780.000
70.44000 997.000
70.46000 1211.000
70.48000 1463.000
70.50000 1612.000
70.52000 1613.000
70.54000 1582.000
70.56000 1354.000
70.58000 1090.000
70.60000 884.000
70.62000 797.000
70.64000 801.000
70.66000 869.000
70.68000 940.000
70.70000 975.000
70.72000 1030.000
70.74000 1018.000
70.76000 855.000
70.78000 709.000
70.80000 613.000
70.82000 512.000
70.84000 448.000
70.86000 394.000
70.88000 379.000
70.90000 361.000
70.92000 354.000
70.94000 386.000
70.96000 350.000
70.98000 341.000
71.00000 379.000
71.02000 361.000
71.04000 370.000
71.06000 329.000
71.08000 310.000
71.10000 346.000
71.12000 334.000
71.14000 369.000
71.16000 361.000
71.18000 310.000
71.20000 288.000
71.22000 280.000
71.24000 312.000
71.26000 309.000
71.28000 311.000
71.30000 335.000
71.32000 299.000
71.34000 333.000
71.36000 290.000
71.38000 323.000
71.40000 341.000
71.42000 313.000
71.44000 315.000
71.46000 331.000
71.48000 303.000
71.50000 340.000
71.52000 318.000
71.54000 312.000
71.56000 351.000
71.58000 325.000
71.60000 341.000
71.62000 311.000
71.64000 334.000
71.66000 307.000
71.68000 329.000
71.70000 311.000
71.72000 327.000
71.74000 335.000
71.76000 338.000
71.78000 328.000
71.80000 332.000
71.82000 346.000
71.84000 306.000
71.86000 346.000
71.88000 363.000
71.90000 340.000
71.92000 385.000
71.94000 339.000
71.96000 354.000
71.98000 351.000
72.00000 364.000
72.02000 368.000
72.04000 359.000
72.06000 377.000
72.08000 423.000
72.10000 417.000
72.12000 391.000
72.14000 450.000
72.16000 443.000
72.18000 456.000
72.20000 479.000
72.22000 434.000
72.24000 489.000
72.26000 486.000
72.28000 494.000
72.30000 501.000
72.32000 588.000
72.34000 696.000
72.36000 879.000
72.38000 1074.000
72.40000 1309.000
72.42000 1784.000
72.44000 2447.000
72.46000 3139.000
72.48000 3827.000
72.50000 4408.000
72.52000 4732.000
72.54000 4462.000
72.56000 3772.000
72.58000 3018.000
72.60000 2365.000
72.62000 2013.000
72.64000 1887.000
72.66000 2017.000
72.68000 2199.000
72.70000 2462.000
72.72000 2573.000
72.74000 2570.000
72.76000 2196.000
72.78000 1780.000
72.80000 1426.000
72.82000 1019.000
72.84000 808.000
72.86000 679.000
72.88000 576.000
72.90000 517.000
72.92000 503.000
72.94000 460.000
72.96000 453.000
72.98000 429.000
73.00000 395.000
73.02000 415.000
73.04000 435.000
73.06000 422.000
73.08000 368.000
73.10000 387.000
73.12000 369.000
73.14000 398.000
73.16000 369.000
73.18000 375.000
73.20000 380.000
73.22000 345.000
73.24000 367.000
73.26000 357.000
73.28000 390.000
73.30000 380.000
73.32000 439.000
73.34000 409.000
73.36000 435.000
73.38000 505.000
73.40000 602.000
73.42000 654.000
73.44000 796.000
73.46000 967.000
73.48000 1178.000
73.50000 1289.000
73.52000 1278.000
73.54000 1232.000
73.56000 998.000
73.58000 878.000
73.60000 726.000
73.62000 671.000
73.64000 628.000
73.66000 707.000
73.68000 716.000
73.70000 813.000
73.72000 864.000
73.74000 804.000
73.76000 739.000
73.78000 635.000
73.80000 560.000
73.82000 496.000
73.84000 430.000
73.86000 433.000
73.88000 400.000
73.90000 381.000
73.92000 367.000
73.94000 348.000
73.96000 358.000
73.98000 359.000
74.00000 336.000
74.02000 316.000
74.04000 331.000
74.06000 345.000
74.08000 355.000
74.10000 328.000
74.12000 350.000
74.14000 363.000
74.16000 334.000
74.18000 324.000
74.20000 356.000
74.22000 347.000
74.24000 357.000
74.26000 373.000
74.28000 401.000
74.30000 399.000
74.32000 421.000
74.34000 464.000
74.36000 485.000
74.38000 549.000
74.40000 666.000
74.42000 814.000
74.44000 1025.000
74.46000 1126.000
74.48000 1244.000
74.50000 1277.000
74.52000 1277.000
74.54000 1102.000
74.56000 979.000
74.58000 788.000
74.60000 709.000
74.62000 653.000
74.64000 628.000
74.66000 727.000
74.68000 750.000
74.70000 830.000
74.72000 855.000
74.74000 790.000
74.76000 703.000
74.78000 617.000
74.80000 520.000
74.82000 442.000
74.84000 384.000
74.86000 380.000
74.88000 393.000
74.90000 350.000
74.92000 349.000
74.94000 330.000
74.96000 342.000
74.98000 343.000
75.00000 331.000
75.02000 298.000
75.04000 324.000
75.06000 324.000
75.08000 331.000
75.10000 300.000
75.12000 304.000
75.14000 328.000
75.16000 329.000
75.18000 306.000
75.20000 309.000
75.22000 353.000
75.24000 319.000
75.26000 323.000
75.28000 351.000
75.30000 331.000
75.32000 335.000
75.34000 353.000
75.36000 348.000
75.38000 375.000
75.40000 380.000
75.42000 377.000
75.44000 384.000
75.46000 423.000
75.48000 416.000
75.50000 408.000
75.52000 419.000
75.54000 389.000
75.56000 372.000
75.58000 372.000
75.60000 369.000
75.62000 354.000
75.64000 345.000
75.66000 382.000
75.68000 389.000
75.70000 367.000
75.72000 352.000
75.74000 323.000
75.76000 322.000
75.78000 330.000
75.80000 319.000
75.82000 324.000
75.84000 333.000
75.86000 328.000
75.88000 352.000
75.90000 324.000
75.92000 297.000
75.94000 326.000
75.96000 348.000
75.98000 307.000
76.00000 299.000
76.02000 297.000
76.04000 299.000
76.06000 300.000
76.08000 307.000
76.10000 328.000
76.12000 281.000
76.14000 313.000
76.16000 311.000
76.18000 300.000
76.20000 309.000
76.22000 315.000
76.24000 289.000
76.26000 296.000
76.28000 292.000
76.30000 340.000
76.32000 313.000
76.34000 320.000
76.36000 299.000
76.38000 284.000
76.40000 275.000
76.42000 323.000
76.44000 293.000
76.46000 308.000
76.48000 307.000
76.50000 321.000
76.52000 313.000
76.54000 282.000
76.56000 294.000
76.58000 319.000
76.60000 332.000
76.62000 340.000
76.64000 351.000
76.66000 333.000
76.68000 360.000
76.70000 343.000
76.72000 359.000
76.74000 324.000
76.76000 316.000
76.78000 303.000
76.80000 338.000
76.82000 363.000
76.84000 351.000
76.86000 341.000
76.88000 327.000
76.90000 315.000
76.92000 344.000
76.94000 371.000
76.96000 340.000
76.98000 337.000
77.00000 353.000
77.02000 329.000
77.04000 352.000
77.06000 386.000
77.08000 360.000
77.10000 366.000
77.12000 351.000
77.14000 381.000
77.16000 307.000
77.18000 381.000
77.20000 353.000
77.22000 370.000
77.24000 395.000
77.26000 371.000
77.28000 387.000
77.30000 454.000
77.32000 541.000
77.34000 584.000
77.36000 742.000
77.38000 889.000
77.40000 1037.000
77.42000 1171.000
77.44000 1161.000
77.46000 1125.000
77.48000 972.000
77.50000 804.000
77.52000 678.000
77.54000 609.000
77.56000 552.000
77.58000 597.000
77.60000 656.000
77.62000 714.000
77.64000 700.000
77.66000 740.000
77.68000 743.000
77.70000 678.000
77.72000 609.000
77.74000 546.000
77.76000 454.000
77.78000 437.000
77.80000 423.000
77.82000 368.000
77.84000 329.000
77.86000 345.000
77.88000 350.000
77.90000 321.000
77.92000 351.000
77.94000 305.000
77.96000 319.000
77.98000 332.000
78.00000 319.000
78.02000 280.000
78.04000 298.000
78.06000 300.000
78.08000 316.000
78.10000 323.000
78.12000 336.000
78.14000 298.000
78.16000 310.000
78.18000 289.000
78.20000 283.000
78.22000 301.000
78.24000 316.000
78.26000 321.000
78.28000 354.000
78.30000 349.000
78.32000 374.000
78.34000 345.000
78.36000 358.000
78.38000 397.000
78.40000 389.000
78.42000 389.000
78.44000 390.000
78.46000 344.000
78.48000 341.000
78.50000 338.000
78.52000 308.000
78.54000 333.000
78.56000 304.000
78.58000 333.000
78.60000 367.000
78.62000 362.000
78.64000 335.000
78.66000 332.000
78.68000 343.000
78.70000 336.000
78.72000 350.000
78.74000 327.000
78.76000 287.000
78.78000 300.000
78.80000 305.000
78.82000 299.000
78.84000 308.000
78.86000 310.000
78.88000 316.000
78.90000 279.000
78.92000 300.000
78.94000 317.000
78.96000 284.000
78.98000 322.000
79.00000 303.000
79.02000 336.000
79.04000 293.000
79.06000 304.000
79.08000 319.000
79.10000 338.000
79.12000 344.000
79.14000 325.000
79.16000 333.000
79.18000 331.000
79.20000 331.000
79.22000 348.000
79.24000 349.000
79.26000 376.000
79.28000 417.000
79.30000 424.000
79.32000 403.000
79.34000 481.000
79.36000 490.000
79.38000 488.000
79.40000 457.000
79.42000 438.000
79.44000 407.000
79.46000 424.000
79.48000 369.000
79.50000 357.000
79.52000 382.000
79.54000 377.000
79.56000 385.000
79.58000 388.000
79.60000 405.000
79.62000 396.000
79.64000 363.000
79.66000 378.000
79.68000 353.000
79.70000 342.000
79.72000 323.000
79.74000 334.000
79.76000 327.000
79.78000 307.000
79.80000 292.000
79.82000 304.000
79.84000 324.000
79.86000 327.000
79.88000 296.000
79.90000 307.000
79.92000 334.000
79.94000 296.000
79.96000 332.000
79.98000 313.000
80.00000 303.000
80.02000 311.000
80.04000 311.000
80.06000 324.000
80.08000 253.000
80.10000 316.000
80.12000 293.000
80.14000 298.000
80.16000 289.000
80.18000 317.000
80.20000 324.000
80.22000 314.000
80.24000 287.000
80.26000 282.000
80.28000 292.000
80.30000 314.000
80.32000 312.000
80.34000 300.000
80.36000 301.000
80.38000 304.000
80.40000 292.000
80.42000 314.000
80.44000 303.000
80.46000 309.000
80.48000 292.000
80.50000 284.000
80.52000 329.000
80.54000 307.000
80.56000 298.000
80.58000 313.000
80.60000 317.000
80.62000 282.000
80.64000 290.000
80.66000 286.000
80.68000 302.000
80.70000 305.000
80.72000 333.000
80.74000 335.000
80.76000 311.000
80.78000 320.000
80.80000 308.000
80.82000 326.000
80.84000 328.000
80.86000 296.000
80.88000 312.000
80.90000 298.000
80.92000 292.000
80.94000 311.000
80.96000 331.000
80.98000 326.000
81.00000 297.000
81.02000 305.000
81.04000 311.000
81.06000 332.000
81.08000 355.000
81.10000 358.000
81.12000 312.000
81.14000 358.000
81.16000 401.000
81.18000 385.000
81.20000 449.000
81.22000 452.000
81.24000 519.000
81.26000 574.000
81.28000 580.000
81.30000 598.000
81.32000 597.000
81.34000 553.000
81.36000 475.000
81.38000 446.000
81.40000 423.000
81.42000 411.000
81.44000 401.000
81.46000 418.000
81.48000 432.000
81.50000 448.000
81.52000 460.000
81.54000 474.000
81.56000 437.000
81.58000 413.000
81.60000 409.000
81.62000 366.000
81.64000 370.000
81.66000 339.000
81.68000 366.000
81.70000 336.000
81.72000 353.000
81.74000 333.000
81.76000 299.000
81.78000 326.000
81.80000 334.000
81.82000 327.000
81.84000 328.000
81.86000 321.000
81.88000 306.000
81.90000 301.000
81.92000 341.000
81.94000 348.000
81.96000 318.000
81.98000 339.000
82.00000 337.000
82.02000 343.000
82.04000 390.000
82.06000 391.000
82.08000 401.000
82.10000 394.000
82.12000 455.000
82.14000 552.000
82.16000 631.000
82.18000 767.000
82.20000 851.000
82.22000 980.000
82.24000 1122.000
82.26000 1105.000
82.28000 1060.000
82.30000 928.000
82.32000 783.000
82.34000 675.000
82.36000 568.000
82.38000 506.000
82.40000 556.000
82.42000 554.000
82.44000 589.000
82.46000 655.000
82.48000 693.000
82.50000 692.000
82.52000 710.000
82.54000 646.000
82.56000 587.000
82.58000 497.000
82.60000 421.000
82.62000 404.000
82.64000 428.000
82.66000 401.000
82.68000 351.000
82.70000 355.000
82.72000 335.000
82.74000 342.000
82.76000 311.000
82.78000 300.000
82.80000 342.000
82.82000 329.000
82.84000 299.000
82.86000 302.000
82.88000 297.000
82.90000 320.000
82.92000 304.000
82.94000 321.000
82.96000 321.000
82.98000 291.000
83.00000 340.000
83.02000 332.000
83.04000 333.000
83.06000 316.000
83.08000 307.000
83.10000 302.000
83.12000 322.000
83.14000 334.000
83.16000 296.000
83.18000 298.000
83.20000 339.000
83.22000 330.000
83.24000 311.000
83.26000 313.000
83.28000 314.000
83.30000 339.000
83.32000 303.000
83.34000 305.000
83.36000 314.000
83.38000 320.000
83.40000 305.000
83.42000 309.000
83.44000 323.000
83.46000 310.000
83.48000 310.000
83.50000 327.000
83.52000 314.000
83.54000 291.000
83.56000 300.000
83.58000 281.000
83.60000 320.000
83.62000 305.000
83.64000 309.000
83.66000 314.000
83.68000 264.000
83.70000 293.000
83.72000 296.000
83.74000 306.000
83.76000 327.000
83.78000 314.000
83.80000 290.000
83.82000 319.000
83.84000 308.000
83.86000 312.000
83.88000 301.000
83.90000 290.000
83.92000 277.000
83.94000 302.000
83.96000 274.000
83.98000 315.000
84.00000 309.000
84.02000 329.000
84.04000 313.000
84.06000 301.000
84.08000 312.000
84.10000 313.000
84.12000 298.000
84.14000 309.000
84.16000 304.000
84.18000 346.000
84.20000 296.000
84.22000 325.000
84.24000 304.000
84.26000 293.000
84.28000 312.000
84.30000 286.000
84.32000 305.000
84.34000 321.000
84.36000 305.000
84.38000 294.000
84.40000 337.000
84.42000 314.000
84.44000 305.000
84.46000 320.000
84.48000 320.000
84.50000 319.000
84.52000 326.000
84.54000 335.000
84.56000 326.000
84.58000 343.000
84.60000 329.000
84.62000 346.000
84.64000 345.000
84.66000 349.000
84.68000 351.000
84.70000 349.000
84.72000 359.000
84.74000 337.000
84.76000 346.000
84.78000 326.000
84.80000 336.000
84.82000 350.000
84.84000 364.000
84.86000 355.000
84.88000 382.000
84.90000 396.000
84.92000 393.000
84.94000 418.000
84.96000 467.000
84.98000 538.000
85.00000 591.000
85.02000 687.000
85.04000 809.000
85.06000 1020.000
85.08000 1169.000
85.10000 1252.000
85.12000 1389.000
85.14000 1299.000
85.16000 1173.000
85.18000 1008.000
85.20000 836.000
85.22000 704.000
85.24000 631.000
85.26000 599.000
85.28000 614.000
85.30000 649.000
85.32000 723.000
85.34000 804.000
85.36000 839.000
85.38000 851.000
85.40000 873.000
85.42000 787.000
85.44000 692.000
85.46000 595.000
85.48000 556.000
85.50000 435.000
85.52000 420.000
85.54000 398.000
85.56000 384.000
85.58000 367.000
85.60000 324.000
85.62000 338.000
85.64000 325.000
85.66000 319.000
85.68000 327.000
85.70000 331.000
85.72000 324.000
85.74000 315.000
85.76000 336.000
85.78000 329.000
85.80000 323.000
85.82000 306.000
85.84000 325.000
85.86000 349.000
85.88000 315.000
85.90000 271.000
85.92000 312.000
85.94000 354.000
85.96000 335.000
85.98000 333.000
86.00000 308.000
86.02000 323.000
86.04000 331.000
86.06000 328.000
86.08000 311.000
86.10000 316.000
86.12000 321.000
86.14000 296.000
86.16000 335.000
86.18000 320.000
86.20000 330.000
86.22000 315.000
86.24000 305.000
86.26000 304.000
86.28000 339.000
86.30000 333.000
86.32000 300.000
86.34000 304.000
86.36000 333.000
86.38000 299.000
86.40000 305.000
86.42000 327.000
86.44000 272.000
86.46000 304.000
86.48000 330.000
86.50000 327.000
86.52000 330.000
86.54000 312.000
86.56000 310.000
86.58000 330.000
86.60000 312.000
86.62000 347.000
86.64000 335.000
86.66000 327.000
86.68000 306.000
86.70000 318.000
86.72000 358.000
86.74000 348.000
86.76000 324.000
86.78000 308.000
86.80000 327.000
86.82000 321.000
86.84000 327.000
86.86000 340.000
86.88000 313.000
86.90000 353.000
86.92000 340.000
86.94000 334.000
86.96000 327.000
86.98000 306.000
87.00000 335.000
87.02000 327.000
87.04000 320.000
87.06000 351.000
87.08000 353.000
87.10000 318.000
87.12000 332.000
87.14000 343.000
87.16000 388.000
87.18000 347.000
87.20000 350.000
87.22000 302.000
87.24000 347.000
87.26000 351.000
87.28000 364.000
87.30000 325.000
87.32000 324.000
87.34000 326.000
87.36000 326.000
87.38000 355.000
87.40000 394.000
87.42000 412.000
87.44000 393.000
87.46000 391.000
87.48000 412.000
87.50000 449.000
87.52000 423.000
87.54000 425.000
87.56000 434.000
87.58000 429.000
87.60000 452.000
87.62000 407.000
87.64000 428.000
87.66000 482.000
87.68000 509.000
87.70000 460.000
87.72000 532.000
87.74000 523.000
87.76000 614.000
87.78000 722.000
87.80000 898.000
87.82000 1020.000
87.84000 1219.000
87.86000 1552.000
87.88000 1964.000
87.90000 2459.000
87.92000 3038.000
87.94000 3581.000
87.96000 3989.000
87.98000 4044.000
88.00000 3663.000
88.02000 3200.000
88.04000 2475.000
88.06000 1999.000
88.08000 1590.000
88.10000 1476.000
88.12000 1290.000
88.14000 1367.000
88.16000 1515.000
88.18000 1736.000
88.20000 1910.000
88.22000 2056.000
88.24000 2189.000
88.26000 2127.000
88.28000 1995.000
88.30000 1674.000
88.32000 1393.000
88.34000 1072.000
88.36000 879.000
88.38000 770.000
88.40000 643.000
88.42000 593.000
88.44000 538.000
88.46000 522.000
88.48000 514.000
88.50000 462.000
88.52000 456.000
88.54000 418.000
88.56000 403.000
88.58000 392.000
88.60000 408.000
88.62000 411.000
88.64000 423.000
88.66000 401.000
88.68000 368.000
88.70000 399.000
88.72000 359.000
88.74000 409.000
88.76000 437.000
88.78000 451.000
88.80000 533.000
88.82000 552.000
88.84000 628.000
88.86000 734.000
88.88000 748.000
88.90000 801.000
88.92000 855.000
88.94000 796.000
88.96000 716.000
88.98000 685.000
89.00000 635.000
89.02000 525.000
89.04000 497.000
89.06000 491.000
89.08000 494.000
89.10000 494.000
89.12000 519.000
89.14000 539.000
89.16000 589.000
89.18000 577.000
89.20000 604.000
89.22000 580.000
89.24000 553.000
89.26000 507.000
89.28000 462.000
89.30000 431.000
89.32000 411.000
89.34000 392.000
89.36000 414.000
89.38000 416.000
89.40000 391.000
89.42000 357.000
89.44000 413.000
89.46000 376.000
89.48000 358.000
89.50000 360.000
89.52000 380.000
89.54000 346.000
89.56000 383.000
89.58000 420.000
89.60000 409.000
89.62000 403.000
89.64000 439.000
89.66000 460.000
89.68000 462.000
89.70000 541.000
89.72000 563.000
89.74000 664.000
89.76000 754.000
89.78000 954.000
89.80000 1098.000
89.82000 1258.000
89.84000 1417.000
89.86000 1542.000
89.88000 1571.000
89.90000 1403.000
89.92000 1173.000
89.94000 1037.000
89.96000 831.000
89.98000 765.000
